Time(s)	AF_FLEX
0	3,66300366300365
0,0005	3,66300366300365
0,001	3,66300366300365
0,0015	3,66300366300365
0,002	3,66300366300365
0,0025	3,66300366300365
0,003	3,66300366300365
0,0035	3,66300366300365
0,004	3,66300366300365
0,0045	13,4310134310134
0,005	18,3150183150183
0,0055	28,083028083028
0,006	28,083028083028
0,0065	18,3150183150183
0,007	-6,10500610500608
0,0075	-10,989010989011
0,008	-10,989010989011
0,0085	-10,989010989011
0,009	-6,10500610500608
0,0095	-1,22100122100122
0,01	-1,22100122100122
0,0105	3,66300366300365
0,011	3,66300366300365
0,0115	3,66300366300365
0,012	3,66300366300365
0,0125	8,54700854700852
0,013	8,54700854700852
0,0135	8,54700854700852
0,014	3,66300366300365
0,0145	3,66300366300365
0,015	3,66300366300365
0,0155	3,66300366300365
0,016	3,66300366300365
0,0165	3,66300366300365
0,017	-1,22100122100122
0,0175	3,66300366300365
0,018	3,66300366300365
0,0185	3,66300366300365
0,019	3,66300366300365
0,0195	8,54700854700852
0,02	3,66300366300365
0,0205	3,66300366300365
0,021	8,54700854700852
0,0215	13,4310134310134
0,022	18,3150183150183
0,0225	8,54700854700852
0,023	8,54700854700852
0,0235	3,66300366300365
0,024	-1,22100122100122
0,0245	3,66300366300365
0,025	3,66300366300365
0,0255	3,66300366300365
0,026	-1,22100122100122
0,0265	-1,22100122100122
0,027	-1,22100122100122
0,0275	-6,10500610500608
0,028	-10,989010989011
0,0285	-6,10500610500608
0,029	-1,22100122100122
0,0295	3,66300366300365
0,03	3,66300366300365
0,0305	8,54700854700852
0,031	8,54700854700852
0,0315	8,54700854700852
0,032	8,54700854700852
0,0325	8,54700854700852
0,033	3,66300366300365
0,0335	3,66300366300365
0,034	3,66300366300365
0,0345	3,66300366300365
0,035	3,66300366300365
0,0355	3,66300366300365
0,036	-1,22100122100122
0,0365	3,66300366300365
0,037	3,66300366300365
0,0375	3,66300366300365
0,038	-1,22100122100122
0,0385	3,66300366300365
0,039	3,66300366300365
0,0395	8,54700854700852
0,04	8,54700854700852
0,0405	8,54700854700852
0,041	3,66300366300365
0,0415	3,66300366300365
0,042	3,66300366300365
0,0425	3,66300366300365
0,043	3,66300366300365
0,0435	8,54700854700852
0,044	8,54700854700852
0,0445	8,54700854700852
0,045	8,54700854700852
0,0455	8,54700854700852
0,046	3,66300366300365
0,0465	3,66300366300365
0,047	-1,22100122100122
0,0475	-1,22100122100122
0,048	-6,10500610500608
0,0485	-1,22100122100122
0,049	3,66300366300365
0,0495	3,66300366300365
0,05	3,66300366300365
0,0505	3,66300366300365
0,051	3,66300366300365
0,0515	3,66300366300365
0,052	3,66300366300365
0,0525	8,54700854700852
0,053	3,66300366300365
0,0535	3,66300366300365
0,054	3,66300366300365
0,0545	3,66300366300365
0,055	3,66300366300365
0,0555	13,4310134310134
0,056	8,54700854700852
0,0565	8,54700854700852
0,057	8,54700854700852
0,0575	8,54700854700852
0,058	3,66300366300365
0,0585	3,66300366300365
0,059	8,54700854700852
0,0595	3,66300366300365
0,06	3,66300366300365
0,0605	8,54700854700852
0,061	18,3150183150183
0,0615	23,1990231990231
0,062	23,1990231990231
0,0625	23,1990231990231
0,063	18,3150183150183
0,0635	13,4310134310134
0,064	8,54700854700852
0,0645	-1,22100122100122
0,065	-10,989010989011
0,0655	-25,6410256410256
0,066	-45,177045177045
0,0665	-50,0610500610499
0,067	-50,0610500610499
0,0675	-40,2930402930402
0,068	-20,7570207570207
0,0685	-10,989010989011
0,069	3,66300366300365
0,0695	8,54700854700852
0,07	18,3150183150183
0,0705	18,3150183150183
0,071	18,3150183150183
0,0715	18,3150183150183
0,072	18,3150183150183
0,0725	18,3150183150183
0,073	23,1990231990231
0,0735	18,3150183150183
0,074	18,3150183150183
0,0745	18,3150183150183
0,075	18,3150183150183
0,0755	13,4310134310134
0,076	13,4310134310134
0,0765	13,4310134310134
0,077	8,54700854700852
0,0775	8,54700854700852
0,078	8,54700854700852
0,0785	8,54700854700852
0,079	8,54700854700852
0,0795	8,54700854700852
0,08	8,54700854700852
0,0805	8,54700854700852
0,081	3,66300366300365
0,0815	3,66300366300365
0,082	3,66300366300365
0,0825	-1,22100122100122
0,083	3,66300366300365
0,0835	3,66300366300365
0,084	8,54700854700852
0,0845	13,4310134310134
0,085	8,54700854700852
0,0855	-1,22100122100122
0,086	-10,989010989011
0,0865	-10,989010989011
0,087	-10,989010989011
0,0875	-10,989010989011
0,088	-6,10500610500608
0,0885	-6,10500610500608
0,089	-6,10500610500608
0,0895	-1,22100122100122
0,09	3,66300366300365
0,0905	8,54700854700852
0,091	8,54700854700852
0,0915	8,54700854700852
0,092	13,4310134310134
0,0925	18,3150183150183
0,093	18,3150183150183
0,0935	8,54700854700852
0,094	8,54700854700852
0,0945	3,66300366300365
0,095	3,66300366300365
0,0955	3,66300366300365
0,096	3,66300366300365
0,0965	18,3150183150183
0,097	23,1990231990231
0,0975	13,4310134310134
0,098	-1,22100122100122
0,0985	-6,10500610500608
0,099	-1,22100122100122
0,0995	3,66300366300365
0,1	3,66300366300365
0,1005	3,66300366300365
0,101	3,66300366300365
0,1015	8,54700854700852
0,102	3,66300366300365
0,1025	3,66300366300365
0,103	3,66300366300365
0,1035	3,66300366300365
0,104	3,66300366300365
0,1045	3,66300366300365
0,105	3,66300366300365
0,1055	3,66300366300365
0,106	3,66300366300365
0,1065	3,66300366300365
0,107	3,66300366300365
0,1075	3,66300366300365
0,108	-6,10500610500608
0,1085	-6,10500610500608
0,109	-6,10500610500608
0,1095	-1,22100122100122
0,11	-6,10500610500608
0,1105	-6,10500610500608
0,111	-1,22100122100122
0,1115	3,66300366300365
0,112	8,54700854700852
0,1125	3,66300366300365
0,113	8,54700854700852
0,1135	-1,22100122100122
0,114	-6,10500610500608
0,1145	-6,10500610500608
0,115	-6,10500610500608
0,1155	3,66300366300365
0,116	13,4310134310134
0,1165	32,9670329670329
0,117	42,7350427350426
0,1175	28,083028083028
0,118	13,4310134310134
0,1185	3,66300366300365
0,119	3,66300366300365
0,1195	3,66300366300365
0,12	3,66300366300365
0,1205	3,66300366300365
0,121	3,66300366300365
0,1215	3,66300366300365
0,122	3,66300366300365
0,1225	3,66300366300365
0,123	3,66300366300365
0,1235	3,66300366300365
0,124	-1,22100122100122
0,1245	-1,22100122100122
0,125	3,66300366300365
0,1255	3,66300366300365
0,126	3,66300366300365
0,1265	-1,22100122100122
0,127	-1,22100122100122
0,1275	-1,22100122100122
0,128	-1,22100122100122
0,1285	-6,10500610500608
0,129	-10,989010989011
0,1295	-10,989010989011
0,13	-10,989010989011
0,1305	-10,989010989011
0,131	-6,10500610500608
0,1315	3,66300366300365
0,132	23,1990231990231
0,1325	42,7350427350426
0,133	42,7350427350426
0,1335	18,3150183150183
0,134	-10,989010989011
0,1345	-15,8730158730158
0,135	-10,989010989011
0,1355	-1,22100122100122
0,136	3,66300366300365
0,1365	3,66300366300365
0,137	-1,22100122100122
0,1375	-6,10500610500608
0,138	-10,989010989011
0,1385	-6,10500610500608
0,139	-1,22100122100122
0,1395	-1,22100122100122
0,14	3,66300366300365
0,1405	-1,22100122100122
0,141	-1,22100122100122
0,1415	-1,22100122100122
0,142	3,66300366300365
0,1425	3,66300366300365
0,143	8,54700854700852
0,1435	8,54700854700852
0,144	8,54700854700852
0,1445	3,66300366300365
0,145	8,54700854700852
0,1455	8,54700854700852
0,146	8,54700854700852
0,1465	8,54700854700852
0,147	23,1990231990231
0,1475	23,1990231990231
0,148	18,3150183150183
0,1485	13,4310134310134
0,149	13,4310134310134
0,1495	13,4310134310134
0,15	8,54700854700852
0,1505	8,54700854700852
0,151	8,54700854700852
0,1515	3,66300366300365
0,152	3,66300366300365
0,1525	-1,22100122100122
0,153	-6,10500610500608
0,1535	-6,10500610500608
0,154	-1,22100122100122
0,1545	3,66300366300365
0,155	3,66300366300365
0,1555	8,54700854700852
0,156	3,66300366300365
0,1565	-1,22100122100122
0,157	-6,10500610500608
0,1575	-1,22100122100122
0,158	-1,22100122100122
0,1585	-6,10500610500608
0,159	-10,989010989011
0,1595	-10,989010989011
0,16	-10,989010989011
0,1605	-6,10500610500608
0,161	-1,22100122100122
0,1615	8,54700854700852
0,162	18,3150183150183
0,1625	18,3150183150183
0,163	8,54700854700852
0,1635	8,54700854700852
0,164	8,54700854700852
0,1645	8,54700854700852
0,165	8,54700854700852
0,1655	8,54700854700852
0,166	8,54700854700852
0,1665	8,54700854700852
0,167	3,66300366300365
0,1675	3,66300366300365
0,168	3,66300366300365
0,1685	3,66300366300365
0,169	3,66300366300365
0,1695	3,66300366300365
0,17	3,66300366300365
0,1705	3,66300366300365
0,171	3,66300366300365
0,1715	3,66300366300365
0,172	-1,22100122100122
0,1725	-1,22100122100122
0,173	-1,22100122100122
0,1735	-1,22100122100122
0,174	3,66300366300365
0,1745	3,66300366300365
0,175	3,66300366300365
0,1755	3,66300366300365
0,176	3,66300366300365
0,1765	8,54700854700852
0,177	8,54700854700852
0,1775	8,54700854700852
0,178	8,54700854700852
0,1785	3,66300366300365
0,179	3,66300366300365
0,1795	3,66300366300365
0,18	3,66300366300365
0,1805	8,54700854700852
0,181	8,54700854700852
0,1815	8,54700854700852
0,182	8,54700854700852
0,1825	3,66300366300365
0,183	3,66300366300365
0,1835	3,66300366300365
0,184	3,66300366300365
0,1845	3,66300366300365
0,185	3,66300366300365
0,1855	3,66300366300365
0,186	-1,22100122100122
0,1865	3,66300366300365
0,187	3,66300366300365
0,1875	3,66300366300365
0,188	3,66300366300365
0,1885	3,66300366300365
0,189	3,66300366300365
0,1895	3,66300366300365
0,19	3,66300366300365
0,1905	3,66300366300365
0,191	3,66300366300365
0,1915	3,66300366300365
0,192	3,66300366300365
0,1925	3,66300366300365
0,193	3,66300366300365
0,1935	-1,22100122100122
0,194	-1,22100122100122
0,1945	-1,22100122100122
0,195	3,66300366300365
0,1955	3,66300366300365
0,196	3,66300366300365
0,1965	3,66300366300365
0,197	3,66300366300365
0,1975	3,66300366300365
0,198	3,66300366300365
0,1985	3,66300366300365
0,199	3,66300366300365
0,1995	3,66300366300365
0,2	3,66300366300365
0,2005	3,66300366300365
0,201	3,66300366300365
0,2015	3,66300366300365
0,202	3,66300366300365
0,2025	3,66300366300365
0,203	3,66300366300365
0,2035	8,54700854700852
0,204	8,54700854700852
0,2045	8,54700854700852
0,205	8,54700854700852
0,2055	8,54700854700852
0,206	8,54700854700852
0,2065	3,66300366300365
0,207	3,66300366300365
0,2075	3,66300366300365
0,208	3,66300366300365
0,2085	3,66300366300365
0,209	3,66300366300365
0,2095	3,66300366300365
0,21	8,54700854700852
0,2105	8,54700854700852
0,211	8,54700854700852
0,2115	3,66300366300365
0,212	8,54700854700852
0,2125	3,66300366300365
0,213	3,66300366300365
0,2135	8,54700854700852
0,214	8,54700854700852
0,2145	8,54700854700852
0,215	3,66300366300365
0,2155	3,66300366300365
0,216	3,66300366300365
0,2165	-1,22100122100122
0,217	-1,22100122100122
0,2175	-1,22100122100122
0,218	-1,22100122100122
0,2185	-6,10500610500608
0,219	-6,10500610500608
0,2195	-1,22100122100122
0,22	-6,10500610500608
0,2205	-6,10500610500608
0,221	-1,22100122100122
0,2215	-1,22100122100122
0,222	3,66300366300365
0,2225	3,66300366300365
0,223	3,66300366300365
0,2235	3,66300366300365
0,224	3,66300366300365
0,2245	8,54700854700852
0,225	3,66300366300365
0,2255	3,66300366300365
0,226	3,66300366300365
0,2265	8,54700854700852
0,227	8,54700854700852
0,2275	8,54700854700852
0,228	13,4310134310134
0,2285	13,4310134310134
0,229	8,54700854700852
0,2295	8,54700854700852
0,23	3,66300366300365
0,2305	8,54700854700852
0,231	3,66300366300365
0,2315	3,66300366300365
0,232	3,66300366300365
0,2325	3,66300366300365
0,233	8,54700854700852
0,2335	8,54700854700852
0,234	13,4310134310134
0,2345	13,4310134310134
0,235	8,54700854700852
0,2355	3,66300366300365
0,236	-6,10500610500608
0,2365	-10,989010989011
0,237	3,66300366300365
0,2375	23,1990231990231
0,238	32,9670329670329
0,2385	23,1990231990231
0,239	8,54700854700852
0,2395	-1,22100122100122
0,24	-10,989010989011
0,2405	-10,989010989011
0,241	-10,989010989011
0,2415	-10,989010989011
0,242	-10,989010989011
0,2425	-10,989010989011
0,243	-10,989010989011
0,2435	-10,989010989011
0,244	-10,989010989011
0,2445	-10,989010989011
0,245	-6,10500610500608
0,2455	3,66300366300365
0,246	3,66300366300365
0,2465	3,66300366300365
0,247	3,66300366300365
0,2475	8,54700854700852
0,248	8,54700854700852
0,2485	8,54700854700852
0,249	8,54700854700852
0,2495	8,54700854700852
0,25	8,54700854700852
0,2505	8,54700854700852
0,251	8,54700854700852
0,2515	13,4310134310134
0,252	13,4310134310134
0,2525	18,3150183150183
0,253	13,4310134310134
0,2535	13,4310134310134
0,254	18,3150183150183
0,2545	13,4310134310134
0,255	8,54700854700852
0,2555	3,66300366300365
0,256	8,54700854700852
0,2565	8,54700854700852
0,257	8,54700854700852
0,2575	8,54700854700852
0,258	8,54700854700852
0,2585	8,54700854700852
0,259	8,54700854700852
0,2595	3,66300366300365
0,26	3,66300366300365
0,2605	3,66300366300365
0,261	3,66300366300365
0,2615	3,66300366300365
0,262	-1,22100122100122
0,2625	-1,22100122100122
0,263	-1,22100122100122
0,2635	-10,989010989011
0,264	-10,989010989011
0,2645	-10,989010989011
0,265	-1,22100122100122
0,2655	3,66300366300365
0,266	3,66300366300365
0,2665	3,66300366300365
0,267	3,66300366300365
0,2675	3,66300366300365
0,268	3,66300366300365
0,2685	3,66300366300365
0,269	-1,22100122100122
0,2695	3,66300366300365
0,27	3,66300366300365
0,2705	3,66300366300365
0,271	3,66300366300365
0,2715	8,54700854700852
0,272	3,66300366300365
0,2725	3,66300366300365
0,273	8,54700854700852
0,2735	8,54700854700852
0,274	8,54700854700852
0,2745	8,54700854700852
0,275	8,54700854700852
0,2755	8,54700854700852
0,276	8,54700854700852
0,2765	8,54700854700852
0,277	3,66300366300365
0,2775	3,66300366300365
0,278	8,54700854700852
0,2785	8,54700854700852
0,279	8,54700854700852
0,2795	8,54700854700852
0,28	3,66300366300365
0,2805	3,66300366300365
0,281	3,66300366300365
0,2815	3,66300366300365
0,282	3,66300366300365
0,2825	3,66300366300365
0,283	3,66300366300365
0,2835	3,66300366300365
0,284	3,66300366300365
0,2845	3,66300366300365
0,285	3,66300366300365
0,2855	3,66300366300365
0,286	3,66300366300365
0,2865	-1,22100122100122
0,287	-6,10500610500608
0,2875	-6,10500610500608
0,288	-6,10500610500608
0,2885	-6,10500610500608
0,289	-1,22100122100122
0,2895	3,66300366300365
0,29	8,54700854700852
0,2905	8,54700854700852
0,291	8,54700854700852
0,2915	8,54700854700852
0,292	8,54700854700852
0,2925	3,66300366300365
0,293	8,54700854700852
0,2935	8,54700854700852
0,294	8,54700854700852
0,2945	3,66300366300365
0,295	3,66300366300365
0,2955	3,66300366300365
0,296	3,66300366300365
0,2965	3,66300366300365
0,297	8,54700854700852
0,2975	8,54700854700852
0,298	13,4310134310134
0,2985	8,54700854700852
0,299	3,66300366300365
0,2995	3,66300366300365
0,3	3,66300366300365
0,3005	-1,22100122100122
0,301	3,66300366300365
0,3015	-1,22100122100122
0,302	-1,22100122100122
0,3025	-1,22100122100122
0,303	3,66300366300365
0,3035	-1,22100122100122
0,304	-1,22100122100122
0,3045	3,66300366300365
0,305	3,66300366300365
0,3055	3,66300366300365
0,306	3,66300366300365
0,3065	-1,22100122100122
0,307	-1,22100122100122
0,3075	-1,22100122100122
0,308	-1,22100122100122
0,3085	-1,22100122100122
0,309	-1,22100122100122
0,3095	3,66300366300365
0,31	3,66300366300365
0,3105	3,66300366300365
0,311	8,54700854700852
0,3115	8,54700854700852
0,312	8,54700854700852
0,3125	13,4310134310134
0,313	13,4310134310134
0,3135	13,4310134310134
0,314	13,4310134310134
0,3145	8,54700854700852
0,315	8,54700854700852
0,3155	3,66300366300365
0,316	3,66300366300365
0,3165	3,66300366300365
0,317	3,66300366300365
0,3175	3,66300366300365
0,318	3,66300366300365
0,3185	-1,22100122100122
0,319	3,66300366300365
0,3195	3,66300366300365
0,32	3,66300366300365
0,3205	3,66300366300365
0,321	8,54700854700852
0,3215	3,66300366300365
0,322	3,66300366300365
0,3225	-1,22100122100122
0,323	-6,10500610500608
0,3235	-6,10500610500608
0,324	-1,22100122100122
0,3245	3,66300366300365
0,325	3,66300366300365
0,3255	3,66300366300365
0,326	3,66300366300365
0,3265	8,54700854700852
0,327	3,66300366300365
0,3275	3,66300366300365
0,328	3,66300366300365
0,3285	3,66300366300365
0,329	3,66300366300365
0,3295	8,54700854700852
0,33	8,54700854700852
0,3305	3,66300366300365
0,331	3,66300366300365
0,3315	3,66300366300365
0,332	3,66300366300365
0,3325	3,66300366300365
0,333	3,66300366300365
0,3335	8,54700854700852
0,334	8,54700854700852
0,3345	8,54700854700852
0,335	8,54700854700852
0,3355	3,66300366300365
0,336	3,66300366300365
0,3365	3,66300366300365
0,337	3,66300366300365
0,3375	3,66300366300365
0,338	-1,22100122100122
0,3385	-1,22100122100122
0,339	-1,22100122100122
0,3395	3,66300366300365
0,34	3,66300366300365
0,3405	3,66300366300365
0,341	3,66300366300365
0,3415	3,66300366300365
0,342	3,66300366300365
0,3425	3,66300366300365
0,343	3,66300366300365
0,3435	3,66300366300365
0,344	3,66300366300365
0,3445	3,66300366300365
0,345	3,66300366300365
0,3455	3,66300366300365
0,346	3,66300366300365
0,3465	3,66300366300365
0,347	3,66300366300365
0,3475	3,66300366300365
0,348	3,66300366300365
0,3485	3,66300366300365
0,349	8,54700854700852
0,3495	3,66300366300365
0,35	3,66300366300365
0,3505	8,54700854700852
0,351	3,66300366300365
0,3515	3,66300366300365
0,352	3,66300366300365
0,3525	3,66300366300365
0,353	3,66300366300365
0,3535	8,54700854700852
0,354	8,54700854700852
0,3545	8,54700854700852
0,355	3,66300366300365
0,3555	3,66300366300365
0,356	-1,22100122100122
0,3565	-1,22100122100122
0,357	-1,22100122100122
0,3575	3,66300366300365
0,358	3,66300366300365
0,3585	3,66300366300365
0,359	8,54700854700852
0,3595	8,54700854700852
0,36	8,54700854700852
0,3605	3,66300366300365
0,361	3,66300366300365
0,3615	8,54700854700852
0,362	13,4310134310134
0,3625	18,3150183150183
0,363	18,3150183150183
0,3635	18,3150183150183
0,364	18,3150183150183
0,3645	8,54700854700852
0,365	3,66300366300365
0,3655	-6,10500610500608
0,366	-6,10500610500608
0,3665	-6,10500610500608
0,367	-6,10500610500608
0,3675	-1,22100122100122
0,368	-1,22100122100122
0,3685	3,66300366300365
0,369	3,66300366300365
0,3695	3,66300366300365
0,37	-1,22100122100122
0,3705	3,66300366300365
0,371	-1,22100122100122
0,3715	-1,22100122100122
0,372	-1,22100122100122
0,3725	-1,22100122100122
0,373	-1,22100122100122
0,3735	-6,10500610500608
0,374	-6,10500610500608
0,3745	-1,22100122100122
0,375	3,66300366300365
0,3755	3,66300366300365
0,376	3,66300366300365
0,3765	3,66300366300365
0,377	3,66300366300365
0,3775	3,66300366300365
0,378	3,66300366300365
0,3785	3,66300366300365
0,379	3,66300366300365
0,3795	8,54700854700852
0,38	18,3150183150183
0,3805	8,54700854700852
0,381	3,66300366300365
0,3815	3,66300366300365
0,382	-1,22100122100122
0,3825	3,66300366300365
0,383	3,66300366300365
0,3835	3,66300366300365
0,384	3,66300366300365
0,3845	8,54700854700852
0,385	23,1990231990231
0,3855	23,1990231990231
0,386	8,54700854700852
0,3865	-10,989010989011
0,387	-10,989010989011
0,3875	-10,989010989011
0,388	-1,22100122100122
0,3885	8,54700854700852
0,389	3,66300366300365
0,3895	3,66300366300365
0,39	3,66300366300365
0,3905	-1,22100122100122
0,391	-1,22100122100122
0,3915	3,66300366300365
0,392	3,66300366300365
0,3925	8,54700854700852
0,393	8,54700854700852
0,3935	8,54700854700852
0,394	3,66300366300365
0,3945	8,54700854700852
0,395	8,54700854700852
0,3955	8,54700854700852
0,396	18,3150183150183
0,3965	13,4310134310134
0,397	8,54700854700852
0,3975	8,54700854700852
0,398	8,54700854700852
0,3985	8,54700854700852
0,399	8,54700854700852
0,3995	3,66300366300365
0,4	8,54700854700852
0,4005	8,54700854700852
0,401	8,54700854700852
0,4015	8,54700854700852
0,402	8,54700854700852
0,4025	3,66300366300365
0,403	3,66300366300365
0,4035	3,66300366300365
0,404	3,66300366300365
0,4045	-1,22100122100122
0,405	-1,22100122100122
0,4055	3,66300366300365
0,406	-1,22100122100122
0,4065	-1,22100122100122
0,407	-1,22100122100122
0,4075	-1,22100122100122
0,408	-6,10500610500608
0,4085	-6,10500610500608
0,409	-6,10500610500608
0,4095	-6,10500610500608
0,41	-1,22100122100122
0,4105	-1,22100122100122
0,411	-1,22100122100122
0,4115	-1,22100122100122
0,412	3,66300366300365
0,4125	8,54700854700852
0,413	8,54700854700852
0,4135	8,54700854700852
0,414	8,54700854700852
0,4145	3,66300366300365
0,415	3,66300366300365
0,4155	3,66300366300365
0,416	3,66300366300365
0,4165	3,66300366300365
0,417	3,66300366300365
0,4175	3,66300366300365
0,418	8,54700854700852
0,4185	8,54700854700852
0,419	13,4310134310134
0,4195	8,54700854700852
0,42	8,54700854700852
0,4205	8,54700854700852
0,421	8,54700854700852
0,4215	8,54700854700852
0,422	3,66300366300365
0,4225	8,54700854700852
0,423	3,66300366300365
0,4235	8,54700854700852
0,424	3,66300366300365
0,4245	3,66300366300365
0,425	3,66300366300365
0,4255	3,66300366300365
0,426	3,66300366300365
0,4265	3,66300366300365
0,427	3,66300366300365
0,4275	3,66300366300365
0,428	3,66300366300365
0,4285	3,66300366300365
0,429	3,66300366300365
0,4295	3,66300366300365
0,43	3,66300366300365
0,4305	-1,22100122100122
0,431	-1,22100122100122
0,4315	3,66300366300365
0,432	3,66300366300365
0,4325	3,66300366300365
0,433	3,66300366300365
0,4335	3,66300366300365
0,434	3,66300366300365
0,4345	3,66300366300365
0,435	3,66300366300365
0,4355	8,54700854700852
0,436	3,66300366300365
0,4365	8,54700854700852
0,437	8,54700854700852
0,4375	3,66300366300365
0,438	8,54700854700852
0,4385	3,66300366300365
0,439	3,66300366300365
0,4395	3,66300366300365
0,44	3,66300366300365
0,4405	3,66300366300365
0,441	-1,22100122100122
0,4415	-1,22100122100122
0,442	3,66300366300365
0,4425	-6,10500610500608
0,443	-1,22100122100122
0,4435	3,66300366300365
0,444	3,66300366300365
0,4445	3,66300366300365
0,445	3,66300366300365
0,4455	3,66300366300365
0,446	8,54700854700852
0,4465	8,54700854700852
0,447	8,54700854700852
0,4475	8,54700854700852
0,448	3,66300366300365
0,4485	3,66300366300365
0,449	-1,22100122100122
0,4495	3,66300366300365
0,45	-1,22100122100122
0,4505	3,66300366300365
0,451	3,66300366300365
0,4515	3,66300366300365
0,452	3,66300366300365
0,4525	3,66300366300365
0,453	3,66300366300365
0,4535	3,66300366300365
0,454	3,66300366300365
0,4545	8,54700854700852
0,455	8,54700854700852
0,4555	8,54700854700852
0,456	3,66300366300365
0,4565	3,66300366300365
0,457	3,66300366300365
0,4575	3,66300366300365
0,458	8,54700854700852
0,4585	3,66300366300365
0,459	8,54700854700852
0,4595	8,54700854700852
0,46	3,66300366300365
0,4605	3,66300366300365
0,461	3,66300366300365
0,4615	-1,22100122100122
0,462	-1,22100122100122
0,4625	-1,22100122100122
0,463	-1,22100122100122
0,4635	-1,22100122100122
0,464	-1,22100122100122
0,4645	3,66300366300365
0,465	3,66300366300365
0,4655	3,66300366300365
0,466	8,54700854700852
0,4665	3,66300366300365
0,467	3,66300366300365
0,4675	3,66300366300365
0,468	3,66300366300365
0,4685	3,66300366300365
0,469	3,66300366300365
0,4695	-1,22100122100122
0,47	-1,22100122100122
0,4705	-1,22100122100122
0,471	3,66300366300365
0,4715	3,66300366300365
0,472	8,54700854700852
0,4725	3,66300366300365
0,473	8,54700854700852
0,4735	3,66300366300365
0,474	3,66300366300365
0,4745	3,66300366300365
0,475	8,54700854700852
0,4755	8,54700854700852
0,476	8,54700854700852
0,4765	3,66300366300365
0,477	3,66300366300365
0,4775	3,66300366300365
0,478	8,54700854700852
0,4785	8,54700854700852
0,479	3,66300366300365
0,4795	3,66300366300365
0,48	3,66300366300365
0,4805	3,66300366300365
0,481	8,54700854700852
0,4815	8,54700854700852
0,482	3,66300366300365
0,4825	3,66300366300365
0,483	3,66300366300365
0,4835	3,66300366300365
0,484	-1,22100122100122
0,4845	-1,22100122100122
0,485	3,66300366300365
0,4855	3,66300366300365
0,486	3,66300366300365
0,4865	3,66300366300365
0,487	3,66300366300365
0,4875	8,54700854700852
0,488	3,66300366300365
0,4885	3,66300366300365
0,489	3,66300366300365
0,4895	3,66300366300365
0,49	8,54700854700852
0,4905	8,54700854700852
0,491	13,4310134310134
0,4915	8,54700854700852
0,492	3,66300366300365
0,4925	-6,10500610500608
0,493	-10,989010989011
0,4935	-10,989010989011
0,494	-6,10500610500608
0,4945	-6,10500610500608
0,495	-1,22100122100122
0,4955	3,66300366300365
0,496	3,66300366300365
0,4965	8,54700854700852
0,497	8,54700854700852
0,4975	8,54700854700852
0,498	8,54700854700852
0,4985	8,54700854700852
0,499	8,54700854700852
0,4995	8,54700854700852
0,5	8,54700854700852
0,5005	8,54700854700852
0,501	8,54700854700852
0,5015	8,54700854700852
0,502	8,54700854700852
0,5025	8,54700854700852
0,503	8,54700854700852
0,5035	3,66300366300365
0,504	8,54700854700852
0,5045	8,54700854700852
0,505	8,54700854700852
0,5055	3,66300366300365
0,506	3,66300366300365
0,5065	8,54700854700852
0,507	3,66300366300365
0,5075	3,66300366300365
0,508	3,66300366300365
0,5085	3,66300366300365
0,509	-1,22100122100122
0,5095	-1,22100122100122
0,51	-1,22100122100122
0,5105	-1,22100122100122
0,511	3,66300366300365
0,5115	3,66300366300365
0,512	-1,22100122100122
0,5125	-1,22100122100122
0,513	-1,22100122100122
0,5135	-1,22100122100122
0,514	3,66300366300365
0,5145	3,66300366300365
0,515	-1,22100122100122
0,5155	-6,10500610500608
0,516	-6,10500610500608
0,5165	-6,10500610500608
0,517	-6,10500610500608
0,5175	-1,22100122100122
0,518	3,66300366300365
0,5185	3,66300366300365
0,519	3,66300366300365
0,5195	3,66300366300365
0,52	3,66300366300365
0,5205	8,54700854700852
0,521	8,54700854700852
0,5215	8,54700854700852
0,522	8,54700854700852
0,5225	8,54700854700852
0,523	8,54700854700852
0,5235	8,54700854700852
0,524	8,54700854700852
0,5245	8,54700854700852
0,525	8,54700854700852
0,5255	3,66300366300365
0,526	8,54700854700852
0,5265	3,66300366300365
0,527	3,66300366300365
0,5275	3,66300366300365
0,528	8,54700854700852
0,5285	8,54700854700852
0,529	8,54700854700852
0,5295	3,66300366300365
0,53	3,66300366300365
0,5305	3,66300366300365
0,531	3,66300366300365
0,5315	3,66300366300365
0,532	3,66300366300365
0,5325	3,66300366300365
0,533	8,54700854700852
0,5335	8,54700854700852
0,534	3,66300366300365
0,5345	3,66300366300365
0,535	3,66300366300365
0,5355	3,66300366300365
0,536	3,66300366300365
0,5365	-1,22100122100122
0,537	-1,22100122100122
0,5375	-1,22100122100122
0,538	3,66300366300365
0,5385	3,66300366300365
0,539	3,66300366300365
0,5395	3,66300366300365
0,54	3,66300366300365
0,5405	3,66300366300365
0,541	3,66300366300365
0,5415	3,66300366300365
0,542	3,66300366300365
0,5425	3,66300366300365
0,543	3,66300366300365
0,5435	3,66300366300365
0,544	3,66300366300365
0,5445	3,66300366300365
0,545	8,54700854700852
0,5455	8,54700854700852
0,546	8,54700854700852
0,5465	8,54700854700852
0,547	8,54700854700852
0,5475	3,66300366300365
0,548	3,66300366300365
0,5485	3,66300366300365
0,549	3,66300366300365
0,5495	3,66300366300365
0,55	3,66300366300365
0,5505	3,66300366300365
0,551	3,66300366300365
0,5515	3,66300366300365
0,552	3,66300366300365
0,5525	3,66300366300365
0,553	3,66300366300365
0,5535	3,66300366300365
0,554	3,66300366300365
0,5545	-1,22100122100122
0,555	-6,10500610500608
0,5555	-10,989010989011
0,556	-10,989010989011
0,5565	-10,989010989011
0,557	-1,22100122100122
0,5575	18,3150183150183
0,558	32,9670329670329
0,5585	28,083028083028
0,559	8,54700854700852
0,5595	-1,22100122100122
0,56	-1,22100122100122
0,5605	3,66300366300365
0,561	-1,22100122100122
0,5615	-6,10500610500608
0,562	-10,989010989011
0,5625	-10,989010989011
0,563	-10,989010989011
0,5635	-10,989010989011
0,564	-6,10500610500608
0,5645	-1,22100122100122
0,565	-1,22100122100122
0,5655	3,66300366300365
0,566	3,66300366300365
0,5665	3,66300366300365
0,567	-1,22100122100122
0,5675	3,66300366300365
0,568	3,66300366300365
0,5685	3,66300366300365
0,569	8,54700854700852
0,5695	8,54700854700852
0,57	8,54700854700852
0,5705	13,4310134310134
0,571	13,4310134310134
0,5715	8,54700854700852
0,572	8,54700854700852
0,5725	8,54700854700852
0,573	8,54700854700852
0,5735	3,66300366300365
0,574	8,54700854700852
0,5745	8,54700854700852
0,575	8,54700854700852
0,5755	8,54700854700852
0,576	8,54700854700852
0,5765	3,66300366300365
0,577	3,66300366300365
0,5775	3,66300366300365
0,578	3,66300366300365
0,5785	3,66300366300365
0,579	3,66300366300365
0,5795	3,66300366300365
0,58	3,66300366300365
0,5805	3,66300366300365
0,581	8,54700854700852
0,5815	3,66300366300365
0,582	3,66300366300365
0,5825	3,66300366300365
0,583	8,54700854700852
0,5835	3,66300366300365
0,584	3,66300366300365
0,5845	-1,22100122100122
0,585	3,66300366300365
0,5855	3,66300366300365
0,586	3,66300366300365
0,5865	3,66300366300365
0,587	3,66300366300365
0,5875	3,66300366300365
0,588	8,54700854700852
0,5885	8,54700854700852
0,589	8,54700854700852
0,5895	3,66300366300365
0,59	3,66300366300365
0,5905	3,66300366300365
0,591	3,66300366300365
0,5915	8,54700854700852
0,592	3,66300366300365
0,5925	-1,22100122100122
0,593	-6,10500610500608
0,5935	-1,22100122100122
0,594	3,66300366300365
0,5945	3,66300366300365
0,595	3,66300366300365
0,5955	3,66300366300365
0,596	3,66300366300365
0,5965	-1,22100122100122
0,597	-1,22100122100122
0,5975	-1,22100122100122
0,598	-1,22100122100122
0,5985	3,66300366300365
0,599	3,66300366300365
0,5995	3,66300366300365
0,6	3,66300366300365
0,6005	3,66300366300365
0,601	3,66300366300365
0,6015	3,66300366300365
0,602	3,66300366300365
0,6025	8,54700854700852
0,603	8,54700854700852
0,6035	8,54700854700852
0,604	8,54700854700852
0,6045	3,66300366300365
0,605	3,66300366300365
0,6055	3,66300366300365
0,606	3,66300366300365
0,6065	3,66300366300365
0,607	3,66300366300365
0,6075	3,66300366300365
0,608	3,66300366300365
0,6085	3,66300366300365
0,609	8,54700854700852
0,6095	3,66300366300365
0,61	8,54700854700852
0,6105	8,54700854700852
0,611	8,54700854700852
0,6115	3,66300366300365
0,612	8,54700854700852
0,6125	3,66300366300365
0,613	3,66300366300365
0,6135	3,66300366300365
0,614	3,66300366300365
0,6145	8,54700854700852
0,615	8,54700854700852
0,6155	8,54700854700852
0,616	3,66300366300365
0,6165	8,54700854700852
0,617	8,54700854700852
0,6175	3,66300366300365
0,618	3,66300366300365
0,6185	3,66300366300365
0,619	3,66300366300365
0,6195	3,66300366300365
0,62	-1,22100122100122
0,6205	-1,22100122100122
0,621	-1,22100122100122
0,6215	-1,22100122100122
0,622	-6,10500610500608
0,6225	-1,22100122100122
0,623	-1,22100122100122
0,6235	-1,22100122100122
0,624	-1,22100122100122
0,6245	-1,22100122100122
0,625	-1,22100122100122
0,6255	-1,22100122100122
0,626	-1,22100122100122
0,6265	3,66300366300365
0,627	3,66300366300365
0,6275	8,54700854700852
0,628	13,4310134310134
0,6285	13,4310134310134
0,629	8,54700854700852
0,6295	8,54700854700852
0,63	8,54700854700852
0,6305	3,66300366300365
0,631	3,66300366300365
0,6315	3,66300366300365
0,632	-1,22100122100122
0,6325	3,66300366300365
0,633	3,66300366300365
0,6335	8,54700854700852
0,634	8,54700854700852
0,6345	8,54700854700852
0,635	8,54700854700852
0,6355	8,54700854700852
0,636	8,54700854700852
0,6365	8,54700854700852
0,637	8,54700854700852
0,6375	8,54700854700852
0,638	3,66300366300365
0,6385	3,66300366300365
0,639	-1,22100122100122
0,6395	-1,22100122100122
0,64	3,66300366300365
0,6405	-1,22100122100122
0,641	-1,22100122100122
0,6415	-1,22100122100122
0,642	-1,22100122100122
0,6425	-1,22100122100122
0,643	3,66300366300365
0,6435	3,66300366300365
0,644	3,66300366300365
0,6445	3,66300366300365
0,645	3,66300366300365
0,6455	3,66300366300365
0,646	3,66300366300365
0,6465	3,66300366300365
0,647	3,66300366300365
0,6475	3,66300366300365
0,648	-1,22100122100122
0,6485	-1,22100122100122
0,649	-1,22100122100122
0,6495	-1,22100122100122
0,65	3,66300366300365
0,6505	3,66300366300365
0,651	3,66300366300365
0,6515	3,66300366300365
0,652	3,66300366300365
0,6525	8,54700854700852
0,653	13,4310134310134
0,6535	13,4310134310134
0,654	18,3150183150183
0,6545	13,4310134310134
0,655	8,54700854700852
0,6555	3,66300366300365
0,656	3,66300366300365
0,6565	3,66300366300365
0,657	3,66300366300365
0,6575	3,66300366300365
0,658	3,66300366300365
0,6585	3,66300366300365
0,659	3,66300366300365
0,6595	3,66300366300365
0,66	3,66300366300365
0,6605	3,66300366300365
0,661	3,66300366300365
0,6615	-1,22100122100122
0,662	3,66300366300365
0,6625	3,66300366300365
0,663	3,66300366300365
0,6635	3,66300366300365
0,664	3,66300366300365
0,6645	3,66300366300365
0,665	-1,22100122100122
0,6655	-1,22100122100122
0,666	-1,22100122100122
0,6665	-1,22100122100122
0,667	-1,22100122100122
0,6675	-1,22100122100122
0,668	-1,22100122100122
0,6685	-1,22100122100122
0,669	-1,22100122100122
0,6695	-1,22100122100122
0,67	3,66300366300365
0,6705	3,66300366300365
0,671	3,66300366300365
0,6715	3,66300366300365
0,672	3,66300366300365
0,6725	8,54700854700852
0,673	3,66300366300365
0,6735	3,66300366300365
0,674	8,54700854700852
0,6745	8,54700854700852
0,675	8,54700854700852
0,6755	8,54700854700852
0,676	8,54700854700852
0,6765	8,54700854700852
0,677	8,54700854700852
0,6775	8,54700854700852
0,678	3,66300366300365
0,6785	3,66300366300365
0,679	3,66300366300365
0,6795	8,54700854700852
0,68	8,54700854700852
0,6805	13,4310134310134
0,681	18,3150183150183
0,6815	13,4310134310134
0,682	8,54700854700852
0,6825	3,66300366300365
0,683	-1,22100122100122
0,6835	-6,10500610500608
0,684	-6,10500610500608
0,6845	-1,22100122100122
0,685	-1,22100122100122
0,6855	-6,10500610500608
0,686	-10,989010989011
0,6865	-6,10500610500608
0,687	-6,10500610500608
0,6875	-6,10500610500608
0,688	-1,22100122100122
0,6885	-1,22100122100122
0,689	3,66300366300365
0,6895	3,66300366300365
0,69	3,66300366300365
0,6905	3,66300366300365
0,691	3,66300366300365
0,6915	3,66300366300365
0,692	3,66300366300365
0,6925	3,66300366300365
0,693	3,66300366300365
0,6935	3,66300366300365
0,694	8,54700854700852
0,6945	8,54700854700852
0,695	8,54700854700852
0,6955	8,54700854700852
0,696	13,4310134310134
0,6965	13,4310134310134
0,697	8,54700854700852
0,6975	8,54700854700852
0,698	3,66300366300365
0,6985	3,66300366300365
0,699	3,66300366300365
0,6995	8,54700854700852
0,7	8,54700854700852
0,7005	3,66300366300365
0,701	3,66300366300365
0,7015	3,66300366300365
0,702	3,66300366300365
0,7025	3,66300366300365
0,703	3,66300366300365
0,7035	3,66300366300365
0,704	3,66300366300365
0,7045	3,66300366300365
0,705	3,66300366300365
0,7055	3,66300366300365
0,706	3,66300366300365
0,7065	3,66300366300365
0,707	8,54700854700852
0,7075	3,66300366300365
0,708	3,66300366300365
0,7085	3,66300366300365
0,709	3,66300366300365
0,7095	3,66300366300365
0,71	3,66300366300365
0,7105	3,66300366300365
0,711	3,66300366300365
0,7115	3,66300366300365
0,712	8,54700854700852
0,7125	8,54700854700852
0,713	8,54700854700852
0,7135	3,66300366300365
0,714	3,66300366300365
0,7145	3,66300366300365
0,715	3,66300366300365
0,7155	3,66300366300365
0,716	3,66300366300365
0,7165	3,66300366300365
0,717	-1,22100122100122
0,7175	3,66300366300365
0,718	3,66300366300365
0,7185	3,66300366300365
0,719	3,66300366300365
0,7195	3,66300366300365
0,72	3,66300366300365
0,7205	8,54700854700852
0,721	8,54700854700852
0,7215	3,66300366300365
0,722	3,66300366300365
0,7225	3,66300366300365
0,723	3,66300366300365
0,7235	3,66300366300365
0,724	3,66300366300365
0,7245	3,66300366300365
0,725	3,66300366300365
0,7255	3,66300366300365
0,726	3,66300366300365
0,7265	-1,22100122100122
0,727	-1,22100122100122
0,7275	3,66300366300365
0,728	3,66300366300365
0,7285	-1,22100122100122
0,729	3,66300366300365
0,7295	3,66300366300365
0,73	-1,22100122100122
0,7305	3,66300366300365
0,731	3,66300366300365
0,7315	3,66300366300365
0,732	3,66300366300365
0,7325	3,66300366300365
0,733	3,66300366300365
0,7335	3,66300366300365
0,734	3,66300366300365
0,7345	8,54700854700852
0,735	8,54700854700852
0,7355	8,54700854700852
0,736	8,54700854700852
0,7365	8,54700854700852
0,737	8,54700854700852
0,7375	3,66300366300365
0,738	3,66300366300365
0,7385	3,66300366300365
0,739	3,66300366300365
0,7395	8,54700854700852
0,74	13,4310134310134
0,7405	18,3150183150183
0,741	18,3150183150183
0,7415	13,4310134310134
0,742	8,54700854700852
0,7425	8,54700854700852
0,743	13,4310134310134
0,7435	23,1990231990231
0,744	28,083028083028
0,7445	23,1990231990231
0,745	23,1990231990231
0,7455	18,3150183150183
0,746	13,4310134310134
0,7465	8,54700854700852
0,747	-1,22100122100122
0,7475	-10,989010989011
0,748	-30,5250305250304
0,7485	-45,177045177045
0,749	-50,0610500610499
0,7495	-50,0610500610499
0,75	-35,4090354090353
0,7505	-25,6410256410256
0,751	-10,989010989011
0,7515	-6,10500610500608
0,752	3,66300366300365
0,7525	8,54700854700852
0,753	8,54700854700852
0,7535	13,4310134310134
0,754	18,3150183150183
0,7545	18,3150183150183
0,755	18,3150183150183
0,7555	18,3150183150183
0,756	18,3150183150183
0,7565	18,3150183150183
0,757	18,3150183150183
0,7575	13,4310134310134
0,758	8,54700854700852
0,7585	8,54700854700852
0,759	8,54700854700852
0,7595	8,54700854700852
0,76	8,54700854700852
0,7605	8,54700854700852
0,761	8,54700854700852
0,7615	8,54700854700852
0,762	8,54700854700852
0,7625	8,54700854700852
0,763	8,54700854700852
0,7635	8,54700854700852
0,764	8,54700854700852
0,7645	3,66300366300365
0,765	3,66300366300365
0,7655	3,66300366300365
0,766	8,54700854700852
0,7665	8,54700854700852
0,767	8,54700854700852
0,7675	8,54700854700852
0,768	3,66300366300365
0,7685	3,66300366300365
0,769	3,66300366300365
0,7695	3,66300366300365
0,77	-6,10500610500608
0,7705	-1,22100122100122
0,771	-1,22100122100122
0,7715	-1,22100122100122
0,772	3,66300366300365
0,7725	3,66300366300365
0,773	3,66300366300365
0,7735	3,66300366300365
0,774	3,66300366300365
0,7745	3,66300366300365
0,775	3,66300366300365
0,7755	3,66300366300365
0,776	3,66300366300365
0,7765	3,66300366300365
0,777	3,66300366300365
0,7775	3,66300366300365
0,778	3,66300366300365
0,7785	3,66300366300365
0,779	-1,22100122100122
0,7795	-1,22100122100122
0,78	-1,22100122100122
0,7805	-1,22100122100122
0,781	3,66300366300365
0,7815	3,66300366300365
0,782	3,66300366300365
0,7825	3,66300366300365
0,783	3,66300366300365
0,7835	3,66300366300365
0,784	3,66300366300365
0,7845	3,66300366300365
0,785	3,66300366300365
0,7855	3,66300366300365
0,786	3,66300366300365
0,7865	3,66300366300365
0,787	3,66300366300365
0,7875	3,66300366300365
0,788	3,66300366300365
0,7885	3,66300366300365
0,789	3,66300366300365
0,7895	3,66300366300365
0,79	3,66300366300365
0,7905	3,66300366300365
0,791	3,66300366300365
0,7915	3,66300366300365
0,792	3,66300366300365
0,7925	-1,22100122100122
0,793	-1,22100122100122
0,7935	3,66300366300365
0,794	3,66300366300365
0,7945	3,66300366300365
0,795	3,66300366300365
0,7955	3,66300366300365
0,796	8,54700854700852
0,7965	13,4310134310134
0,797	18,3150183150183
0,7975	13,4310134310134
0,798	13,4310134310134
0,7985	8,54700854700852
0,799	8,54700854700852
0,7995	3,66300366300365
0,8	3,66300366300365
0,8005	3,66300366300365
0,801	3,66300366300365
0,8015	3,66300366300365
0,802	3,66300366300365
0,8025	3,66300366300365
0,803	3,66300366300365
0,8035	3,66300366300365
0,804	3,66300366300365
0,8045	3,66300366300365
0,805	3,66300366300365
0,8055	3,66300366300365
0,806	3,66300366300365
0,8065	3,66300366300365
0,807	3,66300366300365
0,8075	3,66300366300365
0,808	3,66300366300365
0,8085	3,66300366300365
0,809	3,66300366300365
0,8095	3,66300366300365
0,81	3,66300366300365
0,8105	3,66300366300365
0,811	3,66300366300365
0,8115	-1,22100122100122
0,812	3,66300366300365
0,8125	-1,22100122100122
0,813	-6,10500610500608
0,8135	-6,10500610500608
0,814	-1,22100122100122
0,8145	3,66300366300365
0,815	8,54700854700852
0,8155	8,54700854700852
0,816	8,54700854700852
0,8165	8,54700854700852
0,817	8,54700854700852
0,8175	8,54700854700852
0,818	3,66300366300365
0,8185	8,54700854700852
0,819	3,66300366300365
0,8195	3,66300366300365
0,82	3,66300366300365
0,8205	3,66300366300365
0,821	3,66300366300365
0,8215	-1,22100122100122
0,822	-1,22100122100122
0,8225	3,66300366300365
0,823	3,66300366300365
0,8235	3,66300366300365
0,824	3,66300366300365
0,8245	3,66300366300365
0,825	3,66300366300365
0,8255	3,66300366300365
0,826	3,66300366300365
0,8265	3,66300366300365
0,827	3,66300366300365
0,8275	3,66300366300365
0,828	3,66300366300365
0,8285	3,66300366300365
0,829	3,66300366300365
0,8295	3,66300366300365
0,83	3,66300366300365
0,8305	3,66300366300365
0,831	3,66300366300365
0,8315	3,66300366300365
0,832	3,66300366300365
0,8325	3,66300366300365
0,833	3,66300366300365
0,8335	3,66300366300365
0,834	3,66300366300365
0,8345	8,54700854700852
0,835	8,54700854700852
0,8355	3,66300366300365
0,836	8,54700854700852
0,8365	8,54700854700852
0,837	8,54700854700852
0,8375	8,54700854700852
0,838	8,54700854700852
0,8385	3,66300366300365
0,839	3,66300366300365
0,8395	3,66300366300365
0,84	3,66300366300365
0,8405	8,54700854700852
0,841	8,54700854700852
0,8415	8,54700854700852
0,842	3,66300366300365
0,8425	3,66300366300365
0,843	3,66300366300365
0,8435	3,66300366300365
0,844	-1,22100122100122
0,8445	-1,22100122100122
0,845	-6,10500610500608
0,8455	-6,10500610500608
0,846	-1,22100122100122
0,8465	-1,22100122100122
0,847	3,66300366300365
0,8475	3,66300366300365
0,848	3,66300366300365
0,8485	3,66300366300365
0,849	3,66300366300365
0,8495	3,66300366300365
0,85	3,66300366300365
0,8505	3,66300366300365
0,851	3,66300366300365
0,8515	3,66300366300365
0,852	3,66300366300365
0,8525	8,54700854700852
0,853	18,3150183150183
0,8535	8,54700854700852
0,854	3,66300366300365
0,8545	3,66300366300365
0,855	3,66300366300365
0,8555	3,66300366300365
0,856	3,66300366300365
0,8565	8,54700854700852
0,857	8,54700854700852
0,8575	8,54700854700852
0,858	3,66300366300365
0,8585	3,66300366300365
0,859	3,66300366300365
0,8595	3,66300366300365
0,86	3,66300366300365
0,8605	3,66300366300365
0,861	3,66300366300365
0,8615	3,66300366300365
0,862	3,66300366300365
0,8625	3,66300366300365
0,863	3,66300366300365
0,8635	3,66300366300365
0,864	8,54700854700852
0,8645	8,54700854700852
0,865	3,66300366300365
0,8655	3,66300366300365
0,866	8,54700854700852
0,8665	8,54700854700852
0,867	8,54700854700852
0,8675	8,54700854700852
0,868	13,4310134310134
0,8685	8,54700854700852
0,869	3,66300366300365
0,8695	-1,22100122100122
0,87	-6,10500610500608
0,8705	-6,10500610500608
0,871	-6,10500610500608
0,8715	-6,10500610500608
0,872	-6,10500610500608
0,8725	-6,10500610500608
0,873	-6,10500610500608
0,8735	-1,22100122100122
0,874	3,66300366300365
0,8745	3,66300366300365
0,875	3,66300366300365
0,8755	8,54700854700852
0,876	3,66300366300365
0,8765	3,66300366300365
0,877	3,66300366300365
0,8775	8,54700854700852
0,878	8,54700854700852
0,8785	3,66300366300365
0,879	-6,10500610500608
0,8795	-10,989010989011
0,88	-6,10500610500608
0,8805	13,4310134310134
0,881	23,1990231990231
0,8815	23,1990231990231
0,882	28,083028083028
0,8825	37,8510378510377
0,883	32,9670329670329
0,8835	13,4310134310134
0,884	3,66300366300365
0,8845	3,66300366300365
0,885	8,54700854700852
0,8855	3,66300366300365
0,886	-1,22100122100122
0,8865	-10,989010989011
0,887	-10,989010989011
0,8875	-6,10500610500608
0,888	-10,989010989011
0,8885	-10,989010989011
0,889	-10,989010989011
0,8895	-6,10500610500608
0,89	3,66300366300365
0,8905	8,54700854700852
0,891	8,54700854700852
0,8915	3,66300366300365
0,892	3,66300366300365
0,8925	3,66300366300365
0,893	-1,22100122100122
0,8935	-1,22100122100122
0,894	-1,22100122100122
0,8945	-1,22100122100122
0,895	3,66300366300365
0,8955	3,66300366300365
0,896	3,66300366300365
0,8965	3,66300366300365
0,897	3,66300366300365
0,8975	-1,22100122100122
0,898	-1,22100122100122
0,8985	-1,22100122100122
0,899	3,66300366300365
0,8995	3,66300366300365
0,9	3,66300366300365
0,9005	3,66300366300365
0,901	3,66300366300365
0,9015	8,54700854700852
0,902	8,54700854700852
0,9025	3,66300366300365
0,903	3,66300366300365
0,9035	3,66300366300365
0,904	3,66300366300365
0,9045	3,66300366300365
0,905	3,66300366300365
0,9055	8,54700854700852
0,906	3,66300366300365
0,9065	8,54700854700852
0,907	8,54700854700852
0,9075	8,54700854700852
0,908	3,66300366300365
0,9085	8,54700854700852
0,909	8,54700854700852
0,9095	8,54700854700852
0,91	13,4310134310134
0,9105	13,4310134310134
0,911	8,54700854700852
0,9115	8,54700854700852
0,912	8,54700854700852
0,9125	3,66300366300365
0,913	3,66300366300365
0,9135	3,66300366300365
0,914	-1,22100122100122
0,9145	-6,10500610500608
0,915	-1,22100122100122
0,9155	-1,22100122100122
0,916	-1,22100122100122
0,9165	-1,22100122100122
0,917	3,66300366300365
0,9175	3,66300366300365
0,918	-1,22100122100122
0,9185	-1,22100122100122
0,919	3,66300366300365
0,9195	-1,22100122100122
0,92	3,66300366300365
0,9205	3,66300366300365
0,921	3,66300366300365
0,9215	3,66300366300365
0,922	8,54700854700852
0,9225	8,54700854700852
0,923	8,54700854700852
0,9235	8,54700854700852
0,924	8,54700854700852
0,9245	8,54700854700852
0,925	8,54700854700852
0,9255	8,54700854700852
0,926	8,54700854700852
0,9265	3,66300366300365
0,927	8,54700854700852
0,9275	3,66300366300365
0,928	3,66300366300365
0,9285	-1,22100122100122
0,929	-1,22100122100122
0,9295	-1,22100122100122
0,93	-1,22100122100122
0,9305	3,66300366300365
0,931	3,66300366300365
0,9315	3,66300366300365
0,932	3,66300366300365
0,9325	3,66300366300365
0,933	3,66300366300365
0,9335	8,54700854700852
0,934	8,54700854700852
0,9345	8,54700854700852
0,935	8,54700854700852
0,9355	8,54700854700852
0,936	8,54700854700852
0,9365	8,54700854700852
0,937	8,54700854700852
0,9375	3,66300366300365
0,938	3,66300366300365
0,9385	3,66300366300365
0,939	3,66300366300365
0,9395	3,66300366300365
0,94	3,66300366300365
0,9405	3,66300366300365
0,941	3,66300366300365
0,9415	3,66300366300365
0,942	-1,22100122100122
0,9425	-1,22100122100122
0,943	-1,22100122100122
0,9435	3,66300366300365
0,944	3,66300366300365
0,9445	3,66300366300365
0,945	3,66300366300365
0,9455	3,66300366300365
0,946	3,66300366300365
0,9465	3,66300366300365
0,947	3,66300366300365
0,9475	3,66300366300365
0,948	3,66300366300365
0,9485	3,66300366300365
0,949	3,66300366300365
0,9495	3,66300366300365
0,95	3,66300366300365
0,9505	3,66300366300365
0,951	8,54700854700852
0,9515	8,54700854700852
0,952	8,54700854700852
0,9525	8,54700854700852
0,953	8,54700854700852
0,9535	3,66300366300365
0,954	3,66300366300365
0,9545	3,66300366300365
0,955	8,54700854700852
0,9555	8,54700854700852
0,956	8,54700854700852
0,9565	8,54700854700852
0,957	3,66300366300365
0,9575	-1,22100122100122
0,958	-1,22100122100122
0,9585	3,66300366300365
0,959	3,66300366300365
0,9595	-1,22100122100122
0,96	3,66300366300365
0,9605	3,66300366300365
0,961	8,54700854700852
0,9615	3,66300366300365
0,962	3,66300366300365
0,9625	3,66300366300365
0,963	3,66300366300365
0,9635	3,66300366300365
0,964	3,66300366300365
0,9645	3,66300366300365
0,965	3,66300366300365
0,9655	3,66300366300365
0,966	3,66300366300365
0,9665	-1,22100122100122
0,967	-1,22100122100122
0,9675	-1,22100122100122
0,968	-6,10500610500608
0,9685	-1,22100122100122
0,969	-6,10500610500608
0,9695	-6,10500610500608
0,97	3,66300366300365
0,9705	3,66300366300365
0,971	8,54700854700852
0,9715	8,54700854700852
0,972	8,54700854700852
0,9725	8,54700854700852
0,973	8,54700854700852
0,9735	13,4310134310134
0,974	13,4310134310134
0,9745	18,3150183150183
0,975	13,4310134310134
0,9755	8,54700854700852
0,976	8,54700854700852
0,9765	8,54700854700852
0,977	3,66300366300365
0,9775	3,66300366300365
0,978	3,66300366300365
0,9785	3,66300366300365
0,979	3,66300366300365
0,9795	3,66300366300365
0,98	-1,22100122100122
0,9805	3,66300366300365
0,981	-1,22100122100122
0,9815	-1,22100122100122
0,982	-1,22100122100122
0,9825	-1,22100122100122
0,983	-1,22100122100122
0,9835	3,66300366300365
0,984	3,66300366300365
0,9845	3,66300366300365
0,985	3,66300366300365
0,9855	3,66300366300365
0,986	3,66300366300365
0,9865	3,66300366300365
0,987	3,66300366300365
0,9875	3,66300366300365
0,988	8,54700854700852
0,9885	8,54700854700852
0,989	8,54700854700852
0,9895	3,66300366300365
0,99	3,66300366300365
0,9905	3,66300366300365
0,991	3,66300366300365
0,9915	3,66300366300365
0,992	-1,22100122100122
0,9925	3,66300366300365
0,993	3,66300366300365
0,9935	3,66300366300365
0,994	3,66300366300365
0,9945	3,66300366300365
0,995	3,66300366300365
0,9955	3,66300366300365
0,996	3,66300366300365
0,9965	3,66300366300365
0,997	3,66300366300365
0,9975	3,66300366300365
0,998	3,66300366300365
0,9985	8,54700854700852
0,999	3,66300366300365
0,9995	8,54700854700852
1	8,54700854700852
1,0005	8,54700854700852
1,001	8,54700854700852
1,0015	8,54700854700852
1,002	3,66300366300365
1,0025	3,66300366300365
1,003	3,66300366300365
1,0035	3,66300366300365
1,004	-1,22100122100122
1,0045	-1,22100122100122
1,005	-1,22100122100122
1,0055	-1,22100122100122
1,006	3,66300366300365
1,0065	3,66300366300365
1,007	3,66300366300365
1,0075	3,66300366300365
1,008	3,66300366300365
1,0085	3,66300366300365
1,009	3,66300366300365
1,0095	3,66300366300365
1,01	3,66300366300365
1,0105	3,66300366300365
1,011	3,66300366300365
1,0115	3,66300366300365
1,012	3,66300366300365
1,0125	3,66300366300365
1,013	3,66300366300365
1,0135	3,66300366300365
1,014	3,66300366300365
1,0145	-1,22100122100122
1,015	-1,22100122100122
1,0155	3,66300366300365
1,016	3,66300366300365
1,0165	23,1990231990231
1,017	37,8510378510377
1,0175	28,083028083028
1,018	8,54700854700852
1,0185	-6,10500610500608
1,019	-10,989010989011
1,0195	-6,10500610500608
1,02	-1,22100122100122
1,0205	3,66300366300365
1,021	8,54700854700852
1,0215	3,66300366300365
1,022	-1,22100122100122
1,0225	-6,10500610500608
1,023	-10,989010989011
1,0235	-10,989010989011
1,024	-15,8730158730158
1,0245	-10,989010989011
1,025	-10,989010989011
1,0255	8,54700854700852
1,026	28,083028083028
1,0265	37,8510378510377
1,027	28,083028083028
1,0275	8,54700854700852
1,028	-1,22100122100122
1,0285	-6,10500610500608
1,029	-1,22100122100122
1,0295	-6,10500610500608
1,03	-10,989010989011
1,0305	-15,8730158730158
1,031	-10,989010989011
1,0315	-6,10500610500608
1,032	3,66300366300365
1,0325	8,54700854700852
1,033	8,54700854700852
1,0335	8,54700854700852
1,034	18,3150183150183
1,0345	18,3150183150183
1,035	18,3150183150183
1,0355	8,54700854700852
1,036	3,66300366300365
1,0365	-1,22100122100122
1,037	-1,22100122100122
1,0375	8,54700854700852
1,038	8,54700854700852
1,0385	18,3150183150183
1,039	32,9670329670329
1,0395	32,9670329670329
1,04	18,3150183150183
1,0405	3,66300366300365
1,041	-1,22100122100122
1,0415	3,66300366300365
1,042	3,66300366300365
1,0425	8,54700854700852
1,043	13,4310134310134
1,0435	18,3150183150183
1,044	8,54700854700852
1,0445	3,66300366300365
1,045	-1,22100122100122
1,0455	-6,10500610500608
1,046	-6,10500610500608
1,0465	-6,10500610500608
1,047	-6,10500610500608
1,0475	-6,10500610500608
1,048	-1,22100122100122
1,0485	-1,22100122100122
1,049	-1,22100122100122
1,0495	-1,22100122100122
1,05	-6,10500610500608
1,0505	-6,10500610500608
1,051	-6,10500610500608
1,0515	-1,22100122100122
1,052	3,66300366300365
1,0525	3,66300366300365
1,053	8,54700854700852
1,0535	8,54700854700852
1,054	8,54700854700852
1,0545	8,54700854700852
1,055	8,54700854700852
1,0555	8,54700854700852
1,056	3,66300366300365
1,0565	8,54700854700852
1,057	3,66300366300365
1,0575	8,54700854700852
1,058	8,54700854700852
1,0585	8,54700854700852
1,059	8,54700854700852
1,0595	8,54700854700852
1,06	3,66300366300365
1,0605	3,66300366300365
1,061	3,66300366300365
1,0615	3,66300366300365
1,062	3,66300366300365
1,0625	3,66300366300365
1,063	3,66300366300365
1,0635	-1,22100122100122
1,064	-1,22100122100122
1,0645	-1,22100122100122
1,065	-1,22100122100122
1,0655	3,66300366300365
1,066	3,66300366300365
1,0665	3,66300366300365
1,067	3,66300366300365
1,0675	-1,22100122100122
1,068	3,66300366300365
1,0685	-1,22100122100122
1,069	-1,22100122100122
1,0695	-1,22100122100122
1,07	-1,22100122100122
1,0705	3,66300366300365
1,071	3,66300366300365
1,0715	3,66300366300365
1,072	3,66300366300365
1,0725	3,66300366300365
1,073	3,66300366300365
1,0735	3,66300366300365
1,074	3,66300366300365
1,0745	3,66300366300365
1,075	8,54700854700852
1,0755	3,66300366300365
1,076	3,66300366300365
1,0765	3,66300366300365
1,077	8,54700854700852
1,0775	8,54700854700852
1,078	8,54700854700852
1,0785	8,54700854700852
1,079	13,4310134310134
1,0795	8,54700854700852
1,08	8,54700854700852
1,0805	8,54700854700852
1,081	8,54700854700852
1,0815	3,66300366300365
1,082	3,66300366300365
1,0825	3,66300366300365
1,083	3,66300366300365
1,0835	3,66300366300365
1,084	3,66300366300365
1,0845	-1,22100122100122
1,085	-6,10500610500608
1,0855	-1,22100122100122
1,086	-6,10500610500608
1,0865	-1,22100122100122
1,087	3,66300366300365
1,0875	3,66300366300365
1,088	3,66300366300365
1,0885	3,66300366300365
1,089	3,66300366300365
1,0895	3,66300366300365
1,09	3,66300366300365
1,0905	3,66300366300365
1,091	3,66300366300365
1,0915	3,66300366300365
1,092	3,66300366300365
1,0925	8,54700854700852
1,093	8,54700854700852
1,0935	3,66300366300365
1,094	3,66300366300365
1,0945	3,66300366300365
1,095	3,66300366300365
1,0955	3,66300366300365
1,096	8,54700854700852
1,0965	3,66300366300365
1,097	3,66300366300365
1,0975	3,66300366300365
1,098	3,66300366300365
1,0985	3,66300366300365
1,099	3,66300366300365
1,0995	3,66300366300365
1,1	3,66300366300365
1,1005	3,66300366300365
1,101	3,66300366300365
1,1015	3,66300366300365
1,102	3,66300366300365
1,1025	3,66300366300365
1,103	3,66300366300365
1,1035	3,66300366300365
1,104	8,54700854700852
1,1045	8,54700854700852
1,105	8,54700854700852
1,1055	8,54700854700852
1,106	8,54700854700852
1,1065	8,54700854700852
1,107	3,66300366300365
1,1075	3,66300366300365
1,108	3,66300366300365
1,1085	3,66300366300365
1,109	-1,22100122100122
1,1095	3,66300366300365
1,11	-1,22100122100122
1,1105	3,66300366300365
1,111	-1,22100122100122
1,1115	-1,22100122100122
1,112	3,66300366300365
1,1125	-1,22100122100122
1,113	-1,22100122100122
1,1135	3,66300366300365
1,114	3,66300366300365
1,1145	3,66300366300365
1,115	3,66300366300365
1,1155	3,66300366300365
1,116	3,66300366300365
1,1165	3,66300366300365
1,117	3,66300366300365
1,1175	3,66300366300365
1,118	3,66300366300365
1,1185	3,66300366300365
1,119	3,66300366300365
1,1195	3,66300366300365
1,12	13,4310134310134
1,1205	18,3150183150183
1,121	18,3150183150183
1,1215	13,4310134310134
1,122	3,66300366300365
1,1225	3,66300366300365
1,123	-1,22100122100122
1,1235	3,66300366300365
1,124	3,66300366300365
1,1245	3,66300366300365
1,125	3,66300366300365
1,1255	3,66300366300365
1,126	3,66300366300365
1,1265	3,66300366300365
1,127	3,66300366300365
1,1275	3,66300366300365
1,128	3,66300366300365
1,1285	3,66300366300365
1,129	3,66300366300365
1,1295	3,66300366300365
1,13	3,66300366300365
1,1305	8,54700854700852
1,131	8,54700854700852
1,1315	8,54700854700852
1,132	8,54700854700852
1,1325	8,54700854700852
1,133	3,66300366300365
1,1335	3,66300366300365
1,134	3,66300366300365
1,1345	3,66300366300365
1,135	3,66300366300365
1,1355	3,66300366300365
1,136	3,66300366300365
1,1365	3,66300366300365
1,137	3,66300366300365
1,1375	8,54700854700852
1,138	8,54700854700852
1,1385	8,54700854700852
1,139	8,54700854700852
1,1395	8,54700854700852
1,14	8,54700854700852
1,1405	3,66300366300365
1,141	3,66300366300365
1,1415	-1,22100122100122
1,142	-6,10500610500608
1,1425	-6,10500610500608
1,143	-10,989010989011
1,1435	-10,989010989011
1,144	-10,989010989011
1,1445	-10,989010989011
1,145	-10,989010989011
1,1455	-10,989010989011
1,146	-6,10500610500608
1,1465	-1,22100122100122
1,147	-6,10500610500608
1,1475	-1,22100122100122
1,148	-1,22100122100122
1,1485	3,66300366300365
1,149	3,66300366300365
1,1495	-1,22100122100122
1,15	-1,22100122100122
1,1505	3,66300366300365
1,151	8,54700854700852
1,1515	23,1990231990231
1,152	32,9670329670329
1,1525	32,9670329670329
1,153	37,8510378510377
1,1535	42,7350427350426
1,154	32,9670329670329
1,1545	23,1990231990231
1,155	8,54700854700852
1,1555	3,66300366300365
1,156	3,66300366300365
1,1565	-1,22100122100122
1,157	3,66300366300365
1,1575	18,3150183150183
1,158	23,1990231990231
1,1585	3,66300366300365
1,159	-6,10500610500608
1,1595	-6,10500610500608
1,16	-6,10500610500608
1,1605	-6,10500610500608
1,161	-6,10500610500608
1,1615	-10,989010989011
1,162	-10,989010989011
1,1625	-10,989010989011
1,163	-10,989010989011
1,1635	-6,10500610500608
1,164	3,66300366300365
1,1645	3,66300366300365
1,165	-1,22100122100122
1,1655	-10,989010989011
1,166	-10,989010989011
1,1665	-6,10500610500608
1,167	-1,22100122100122
1,1675	3,66300366300365
1,168	3,66300366300365
1,1685	8,54700854700852
1,169	3,66300366300365
1,1695	3,66300366300365
1,17	3,66300366300365
1,1705	3,66300366300365
1,171	3,66300366300365
1,1715	3,66300366300365
1,172	3,66300366300365
1,1725	3,66300366300365
1,173	3,66300366300365
1,1735	3,66300366300365
1,174	8,54700854700852
1,1745	3,66300366300365
1,175	8,54700854700852
1,1755	8,54700854700852
1,176	8,54700854700852
1,1765	8,54700854700852
1,177	8,54700854700852
1,1775	8,54700854700852
1,178	8,54700854700852
1,1785	8,54700854700852
1,179	8,54700854700852
1,1795	8,54700854700852
1,18	8,54700854700852
1,1805	8,54700854700852
1,181	3,66300366300365
1,1815	-1,22100122100122
1,182	-1,22100122100122
1,1825	-1,22100122100122
1,183	-1,22100122100122
1,1835	3,66300366300365
1,184	3,66300366300365
1,1845	3,66300366300365
1,185	3,66300366300365
1,1855	3,66300366300365
1,186	3,66300366300365
1,1865	3,66300366300365
1,187	3,66300366300365
1,1875	3,66300366300365
1,188	3,66300366300365
1,1885	8,54700854700852
1,189	8,54700854700852
1,1895	3,66300366300365
1,19	3,66300366300365
1,1905	3,66300366300365
1,191	8,54700854700852
1,1915	8,54700854700852
1,192	8,54700854700852
1,1925	3,66300366300365
1,193	3,66300366300365
1,1935	3,66300366300365
1,194	3,66300366300365
1,1945	3,66300366300365
1,195	3,66300366300365
1,1955	8,54700854700852
1,196	3,66300366300365
1,1965	-1,22100122100122
1,197	-6,10500610500608
1,1975	-1,22100122100122
1,198	-1,22100122100122
1,1985	3,66300366300365
1,199	13,4310134310134
1,1995	13,4310134310134
1,2	13,4310134310134
1,2005	3,66300366300365
1,201	-1,22100122100122
1,2015	-6,10500610500608
1,202	-1,22100122100122
1,2025	3,66300366300365
1,203	3,66300366300365
1,2035	3,66300366300365
1,204	3,66300366300365
1,2045	3,66300366300365
1,205	3,66300366300365
1,2055	3,66300366300365
1,206	3,66300366300365
1,2065	8,54700854700852
1,207	3,66300366300365
1,2075	3,66300366300365
1,208	3,66300366300365
1,2085	3,66300366300365
1,209	3,66300366300365
1,2095	3,66300366300365
1,21	3,66300366300365
1,2105	3,66300366300365
1,211	3,66300366300365
1,2115	8,54700854700852
1,212	8,54700854700852
1,2125	13,4310134310134
1,213	13,4310134310134
1,2135	8,54700854700852
1,214	8,54700854700852
1,2145	3,66300366300365
1,215	3,66300366300365
1,2155	3,66300366300365
1,216	3,66300366300365
1,2165	-1,22100122100122
1,217	-1,22100122100122
1,2175	-6,10500610500608
1,218	-6,10500610500608
1,2185	-6,10500610500608
1,219	-1,22100122100122
1,2195	-1,22100122100122
1,22	-1,22100122100122
1,2205	-1,22100122100122
1,221	3,66300366300365
1,2215	3,66300366300365
1,222	3,66300366300365
1,2225	3,66300366300365
1,223	3,66300366300365
1,2235	3,66300366300365
1,224	3,66300366300365
1,2245	3,66300366300365
1,225	3,66300366300365
1,2255	3,66300366300365
1,226	3,66300366300365
1,2265	8,54700854700852
1,227	8,54700854700852
1,2275	8,54700854700852
1,228	8,54700854700852
1,2285	8,54700854700852
1,229	-1,22100122100122
1,2295	-6,10500610500608
1,23	-1,22100122100122
1,2305	3,66300366300365
1,231	3,66300366300365
1,2315	3,66300366300365
1,232	3,66300366300365
1,2325	3,66300366300365
1,233	3,66300366300365
1,2335	3,66300366300365
1,234	8,54700854700852
1,2345	3,66300366300365
1,235	3,66300366300365
1,2355	3,66300366300365
1,236	3,66300366300365
1,2365	3,66300366300365
1,237	3,66300366300365
1,2375	-1,22100122100122
1,238	3,66300366300365
1,2385	3,66300366300365
1,239	3,66300366300365
1,2395	3,66300366300365
1,24	3,66300366300365
1,2405	3,66300366300365
1,241	3,66300366300365
1,2415	3,66300366300365
1,242	3,66300366300365
1,2425	3,66300366300365
1,243	3,66300366300365
1,2435	3,66300366300365
1,244	8,54700854700852
1,2445	18,3150183150183
1,245	28,083028083028
1,2455	32,9670329670329
1,246	32,9670329670329
1,2465	28,083028083028
1,247	23,1990231990231
1,2475	18,3150183150183
1,248	13,4310134310134
1,2485	13,4310134310134
1,249	13,4310134310134
1,2495	3,66300366300365
1,25	-10,989010989011
1,2505	-20,7570207570207
1,251	-35,4090354090353
1,2515	-45,177045177045
1,252	-62,2710622710621
1,2525	-72,0390720390718
1,253	-62,2710622710621
1,2535	-30,5250305250304
1,254	-6,10500610500608
1,2545	8,54700854700852
1,255	18,3150183150183
1,2555	23,1990231990231
1,256	23,1990231990231
1,2565	18,3150183150183
1,257	8,54700854700852
1,2575	8,54700854700852
1,258	13,4310134310134
1,2585	23,1990231990231
1,259	37,8510378510377
1,2595	42,7350427350426
1,26	32,9670329670329
1,2605	18,3150183150183
1,261	18,3150183150183
1,2615	37,8510378510377
1,262	52,5030525030523
1,2625	59,8290598290596
1,263	37,8510378510377
1,2635	23,1990231990231
1,264	8,54700854700852
1,2645	-10,989010989011
1,265	-30,5250305250304
1,2655	-45,177045177045
1,266	-45,177045177045
1,2665	-35,4090354090353
1,267	-30,5250305250304
1,2675	-25,6410256410256
1,268	-15,8730158730158
1,2685	-6,10500610500608
1,269	3,66300366300365
1,2695	8,54700854700852
1,27	8,54700854700852
1,2705	13,4310134310134
1,271	18,3150183150183
1,2715	28,083028083028
1,272	42,7350427350426
1,2725	47,6190476190475
1,273	28,083028083028
1,2735	8,54700854700852
1,274	-6,10500610500608
1,2745	-1,22100122100122
1,275	3,66300366300365
1,2755	-1,22100122100122
1,276	-1,22100122100122
1,2765	-6,10500610500608
1,277	-6,10500610500608
1,2775	-6,10500610500608
1,278	3,66300366300365
1,2785	13,4310134310134
1,279	13,4310134310134
1,2795	8,54700854700852
1,28	8,54700854700852
1,2805	8,54700854700852
1,281	18,3150183150183
1,2815	23,1990231990231
1,282	23,1990231990231
1,2825	18,3150183150183
1,283	13,4310134310134
1,2835	8,54700854700852
1,284	3,66300366300365
1,2845	-1,22100122100122
1,285	-10,989010989011
1,2855	-10,989010989011
1,286	-10,989010989011
1,2865	-6,10500610500608
1,287	3,66300366300365
1,2875	3,66300366300365
1,288	-15,8730158730158
1,2885	-40,2930402930402
1,289	-45,177045177045
1,2895	-25,6410256410256
1,29	-6,10500610500608
1,2905	18,3150183150183
1,291	32,9670329670329
1,2915	37,8510378510377
1,292	42,7350427350426
1,2925	37,8510378510377
1,293	18,3150183150183
1,2935	-10,989010989011
1,294	-35,4090354090353
1,2945	-50,0610500610499
1,295	-40,2930402930402
1,2955	-10,989010989011
1,296	3,66300366300365
1,2965	18,3150183150183
1,297	28,083028083028
1,2975	28,083028083028
1,298	23,1990231990231
1,2985	18,3150183150183
1,299	13,4310134310134
1,2995	8,54700854700852
1,3	8,54700854700852
1,3005	8,54700854700852
1,301	8,54700854700852
1,3015	8,54700854700852
1,302	8,54700854700852
1,3025	8,54700854700852
1,303	8,54700854700852
1,3035	8,54700854700852
1,304	8,54700854700852
1,3045	3,66300366300365
1,305	3,66300366300365
1,3055	3,66300366300365
1,306	-1,22100122100122
1,3065	3,66300366300365
1,307	3,66300366300365
1,3075	3,66300366300365
1,308	8,54700854700852
1,3085	8,54700854700852
1,309	8,54700854700852
1,3095	3,66300366300365
1,31	3,66300366300365
1,3105	3,66300366300365
1,311	3,66300366300365
1,3115	3,66300366300365
1,312	3,66300366300365
1,3125	3,66300366300365
1,313	3,66300366300365
1,3135	3,66300366300365
1,314	3,66300366300365
1,3145	3,66300366300365
1,315	3,66300366300365
1,3155	3,66300366300365
1,316	3,66300366300365
1,3165	3,66300366300365
1,317	3,66300366300365
1,3175	3,66300366300365
1,318	3,66300366300365
1,3185	3,66300366300365
1,319	3,66300366300365
1,3195	3,66300366300365
1,32	3,66300366300365
1,3205	3,66300366300365
1,321	3,66300366300365
1,3215	3,66300366300365
1,322	3,66300366300365
1,3225	3,66300366300365
1,323	8,54700854700852
1,3235	8,54700854700852
1,324	3,66300366300365
1,3245	3,66300366300365
1,325	3,66300366300365
1,3255	3,66300366300365
1,326	3,66300366300365
1,3265	3,66300366300365
1,327	-1,22100122100122
1,3275	-1,22100122100122
1,328	3,66300366300365
1,3285	3,66300366300365
1,329	3,66300366300365
1,3295	3,66300366300365
1,33	3,66300366300365
1,3305	3,66300366300365
1,331	3,66300366300365
1,3315	8,54700854700852
1,332	3,66300366300365
1,3325	3,66300366300365
1,333	-1,22100122100122
1,3335	3,66300366300365
1,334	3,66300366300365
1,3345	3,66300366300365
1,335	3,66300366300365
1,3355	3,66300366300365
1,336	3,66300366300365
1,3365	3,66300366300365
1,337	3,66300366300365
1,3375	8,54700854700852
1,338	3,66300366300365
1,3385	8,54700854700852
1,339	3,66300366300365
1,3395	-1,22100122100122
1,34	-1,22100122100122
1,3405	-1,22100122100122
1,341	3,66300366300365
1,3415	3,66300366300365
1,342	3,66300366300365
1,3425	8,54700854700852
1,343	8,54700854700852
1,3435	8,54700854700852
1,344	3,66300366300365
1,3445	3,66300366300365
1,345	3,66300366300365
1,3455	3,66300366300365
1,346	3,66300366300365
1,3465	3,66300366300365
1,347	8,54700854700852
1,3475	3,66300366300365
1,348	3,66300366300365
1,3485	3,66300366300365
1,349	3,66300366300365
1,3495	3,66300366300365
1,35	3,66300366300365
1,3505	3,66300366300365
1,351	3,66300366300365
1,3515	3,66300366300365
1,352	3,66300366300365
1,3525	3,66300366300365
1,353	8,54700854700852
1,3535	3,66300366300365
1,354	3,66300366300365
1,3545	3,66300366300365
1,355	3,66300366300365
1,3555	3,66300366300365
1,356	3,66300366300365
1,3565	3,66300366300365
1,357	3,66300366300365
1,3575	3,66300366300365
1,358	3,66300366300365
1,3585	3,66300366300365
1,359	3,66300366300365
1,3595	3,66300366300365
1,36	3,66300366300365
1,3605	3,66300366300365
1,361	3,66300366300365
1,3615	3,66300366300365
1,362	3,66300366300365
1,3625	3,66300366300365
1,363	3,66300366300365
1,3635	3,66300366300365
1,364	8,54700854700852
1,3645	8,54700854700852
1,365	3,66300366300365
1,3655	3,66300366300365
1,366	3,66300366300365
1,3665	3,66300366300365
1,367	3,66300366300365
1,3675	3,66300366300365
1,368	3,66300366300365
1,3685	3,66300366300365
1,369	3,66300366300365
1,3695	3,66300366300365
1,37	3,66300366300365
1,3705	3,66300366300365
1,371	3,66300366300365
1,3715	3,66300366300365
1,372	3,66300366300365
1,3725	3,66300366300365
1,373	3,66300366300365
1,3735	3,66300366300365
1,374	3,66300366300365
1,3745	3,66300366300365
1,375	3,66300366300365
1,3755	3,66300366300365
1,376	8,54700854700852
1,3765	8,54700854700852
1,377	8,54700854700852
1,3775	8,54700854700852
1,378	3,66300366300365
1,3785	3,66300366300365
1,379	-1,22100122100122
1,3795	3,66300366300365
1,38	3,66300366300365
1,3805	-1,22100122100122
1,381	-1,22100122100122
1,3815	3,66300366300365
1,382	8,54700854700852
1,3825	8,54700854700852
1,383	8,54700854700852
1,3835	8,54700854700852
1,384	3,66300366300365
1,3845	3,66300366300365
1,385	3,66300366300365
1,3855	-1,22100122100122
1,386	-6,10500610500608
1,3865	-1,22100122100122
1,387	3,66300366300365
1,3875	8,54700854700852
1,388	8,54700854700852
1,3885	3,66300366300365
1,389	3,66300366300365
1,3895	-1,22100122100122
1,39	-1,22100122100122
1,3905	-1,22100122100122
1,391	3,66300366300365
1,3915	3,66300366300365
1,392	8,54700854700852
1,3925	13,4310134310134
1,393	8,54700854700852
1,3935	8,54700854700852
1,394	8,54700854700852
1,3945	8,54700854700852
1,395	3,66300366300365
1,3955	-6,10500610500608
1,396	-10,989010989011
1,3965	-10,989010989011
1,397	-10,989010989011
1,3975	3,66300366300365
1,398	8,54700854700852
1,3985	8,54700854700852
1,399	-1,22100122100122
1,3995	3,66300366300365
1,4	18,3150183150183
1,4005	23,1990231990231
1,401	13,4310134310134
1,4015	3,66300366300365
1,402	3,66300366300365
1,4025	3,66300366300365
1,403	-1,22100122100122
1,4035	-6,10500610500608
1,404	-6,10500610500608
1,4045	3,66300366300365
1,405	3,66300366300365
1,4055	3,66300366300365
1,406	3,66300366300365
1,4065	3,66300366300365
1,407	13,4310134310134
1,4075	18,3150183150183
1,408	18,3150183150183
1,4085	18,3150183150183
1,409	8,54700854700852
1,4095	8,54700854700852
1,41	3,66300366300365
1,4105	3,66300366300365
1,411	3,66300366300365
1,4115	-1,22100122100122
1,412	-6,10500610500608
1,4125	-1,22100122100122
1,413	-1,22100122100122
1,4135	-1,22100122100122
1,414	3,66300366300365
1,4145	8,54700854700852
1,415	8,54700854700852
1,4155	8,54700854700852
1,416	8,54700854700852
1,4165	3,66300366300365
1,417	-6,10500610500608
1,4175	-6,10500610500608
1,418	3,66300366300365
1,4185	3,66300366300365
1,419	8,54700854700852
1,4195	3,66300366300365
1,42	-1,22100122100122
1,4205	-1,22100122100122
1,421	-1,22100122100122
1,4215	3,66300366300365
1,422	3,66300366300365
1,4225	3,66300366300365
1,423	3,66300366300365
1,4235	8,54700854700852
1,424	8,54700854700852
1,4245	8,54700854700852
1,425	8,54700854700852
1,4255	3,66300366300365
1,426	8,54700854700852
1,4265	8,54700854700852
1,427	3,66300366300365
1,4275	3,66300366300365
1,428	3,66300366300365
1,4285	3,66300366300365
1,429	3,66300366300365
1,4295	3,66300366300365
1,43	3,66300366300365
1,4305	3,66300366300365
1,431	3,66300366300365
1,4315	8,54700854700852
1,432	3,66300366300365
1,4325	3,66300366300365
1,433	3,66300366300365
1,4335	3,66300366300365
1,434	3,66300366300365
1,4345	3,66300366300365
1,435	3,66300366300365
1,4355	3,66300366300365
1,436	3,66300366300365
1,4365	-1,22100122100122
1,437	-1,22100122100122
1,4375	-6,10500610500608
1,438	-1,22100122100122
1,4385	3,66300366300365
1,439	3,66300366300365
1,4395	3,66300366300365
1,44	8,54700854700852
1,4405	8,54700854700852
1,441	3,66300366300365
1,4415	8,54700854700852
1,442	3,66300366300365
1,4425	3,66300366300365
1,443	3,66300366300365
1,4435	3,66300366300365
1,444	3,66300366300365
1,4445	3,66300366300365
1,445	3,66300366300365
1,4455	3,66300366300365
1,446	-1,22100122100122
1,4465	3,66300366300365
1,447	3,66300366300365
1,4475	3,66300366300365
1,448	3,66300366300365
1,4485	3,66300366300365
1,449	-1,22100122100122
1,4495	-1,22100122100122
1,45	3,66300366300365
1,4505	3,66300366300365
1,451	3,66300366300365
1,4515	3,66300366300365
1,452	3,66300366300365
1,4525	3,66300366300365
1,453	3,66300366300365
1,4535	8,54700854700852
1,454	8,54700854700852
1,4545	8,54700854700852
1,455	3,66300366300365
1,4555	3,66300366300365
1,456	3,66300366300365
1,4565	8,54700854700852
1,457	3,66300366300365
1,4575	8,54700854700852
1,458	8,54700854700852
1,4585	8,54700854700852
1,459	3,66300366300365
1,4595	3,66300366300365
1,46	3,66300366300365
1,4605	3,66300366300365
1,461	3,66300366300365
1,4615	8,54700854700852
1,462	8,54700854700852
1,4625	8,54700854700852
1,463	3,66300366300365
1,4635	3,66300366300365
1,464	3,66300366300365
1,4645	-1,22100122100122
1,465	-1,22100122100122
1,4655	-1,22100122100122
1,466	-1,22100122100122
1,4665	-1,22100122100122
1,467	3,66300366300365
1,4675	3,66300366300365
1,468	3,66300366300365
1,4685	3,66300366300365
1,469	3,66300366300365
1,4695	3,66300366300365
1,47	3,66300366300365
1,4705	3,66300366300365
1,471	3,66300366300365
1,4715	3,66300366300365
1,472	3,66300366300365
1,4725	3,66300366300365
1,473	3,66300366300365
1,4735	3,66300366300365
1,474	8,54700854700852
1,4745	8,54700854700852
1,475	8,54700854700852
1,4755	8,54700854700852
1,476	3,66300366300365
1,4765	3,66300366300365
1,477	-1,22100122100122
1,4775	3,66300366300365
1,478	3,66300366300365
1,4785	3,66300366300365
1,479	3,66300366300365
1,4795	3,66300366300365
1,48	3,66300366300365
1,4805	3,66300366300365
1,481	8,54700854700852
1,4815	3,66300366300365
1,482	3,66300366300365
1,4825	-1,22100122100122
1,483	3,66300366300365
1,4835	3,66300366300365
1,484	3,66300366300365
1,4845	3,66300366300365
1,485	8,54700854700852
1,4855	3,66300366300365
1,486	3,66300366300365
1,4865	3,66300366300365
1,487	3,66300366300365
1,4875	3,66300366300365
1,488	3,66300366300365
1,4885	3,66300366300365
1,489	8,54700854700852
1,4895	8,54700854700852
1,49	3,66300366300365
1,4905	3,66300366300365
1,491	3,66300366300365
1,4915	-1,22100122100122
1,492	-6,10500610500608
1,4925	-6,10500610500608
1,493	-1,22100122100122
1,4935	-1,22100122100122
1,494	8,54700854700852
1,4945	28,083028083028
1,495	42,7350427350426
1,4955	28,083028083028
1,496	3,66300366300365
1,4965	-6,10500610500608
1,497	-6,10500610500608
1,4975	-6,10500610500608
1,498	-1,22100122100122
1,4985	3,66300366300365
1,499	3,66300366300365
1,4995	3,66300366300365
1,5	3,66300366300365
1,5005	3,66300366300365
1,501	3,66300366300365
1,5015	3,66300366300365
1,502	-1,22100122100122
1,5025	3,66300366300365
1,503	3,66300366300365
1,5035	3,66300366300365
1,504	3,66300366300365
1,5045	3,66300366300365
1,505	3,66300366300365
1,5055	8,54700854700852
1,506	3,66300366300365
1,5065	3,66300366300365
1,507	3,66300366300365
1,5075	-1,22100122100122
1,508	-1,22100122100122
1,5085	3,66300366300365
1,509	3,66300366300365
1,5095	3,66300366300365
1,51	3,66300366300365
1,5105	3,66300366300365
1,511	3,66300366300365
1,5115	3,66300366300365
1,512	3,66300366300365
1,5125	3,66300366300365
1,513	8,54700854700852
1,5135	8,54700854700852
1,514	8,54700854700852
1,5145	3,66300366300365
1,515	3,66300366300365
1,5155	-1,22100122100122
1,516	-1,22100122100122
1,5165	3,66300366300365
1,517	3,66300366300365
1,5175	3,66300366300365
1,518	3,66300366300365
1,5185	8,54700854700852
1,519	8,54700854700852
1,5195	8,54700854700852
1,52	8,54700854700852
1,5205	8,54700854700852
1,521	3,66300366300365
1,5215	3,66300366300365
1,522	3,66300366300365
1,5225	-1,22100122100122
1,523	-1,22100122100122
1,5235	3,66300366300365
1,524	3,66300366300365
1,5245	3,66300366300365
1,525	3,66300366300365
1,5255	3,66300366300365
1,526	3,66300366300365
1,5265	3,66300366300365
1,527	8,54700854700852
1,5275	8,54700854700852
1,528	3,66300366300365
1,5285	8,54700854700852
1,529	8,54700854700852
1,5295	3,66300366300365
1,53	3,66300366300365
1,5305	3,66300366300365
1,531	3,66300366300365
1,5315	3,66300366300365
1,532	3,66300366300365
1,5325	3,66300366300365
1,533	3,66300366300365
1,5335	-1,22100122100122
1,534	-1,22100122100122
1,5345	3,66300366300365
1,535	3,66300366300365
1,5355	3,66300366300365
1,536	3,66300366300365
1,5365	3,66300366300365
1,537	3,66300366300365
1,5375	3,66300366300365
1,538	3,66300366300365
1,5385	3,66300366300365
1,539	3,66300366300365
1,5395	13,4310134310134
1,54	18,3150183150183
1,5405	23,1990231990231
1,541	18,3150183150183
1,5415	8,54700854700852
1,542	3,66300366300365
1,5425	-1,22100122100122
1,543	-1,22100122100122
1,5435	-1,22100122100122
1,544	3,66300366300365
1,5445	-1,22100122100122
1,545	-1,22100122100122
1,5455	3,66300366300365
1,546	8,54700854700852
1,5465	8,54700854700852
1,547	3,66300366300365
1,5475	3,66300366300365
1,548	3,66300366300365
1,5485	3,66300366300365
1,549	3,66300366300365
1,5495	3,66300366300365
1,55	3,66300366300365
1,5505	-1,22100122100122
1,551	3,66300366300365
1,5515	-1,22100122100122
1,552	3,66300366300365
1,5525	-1,22100122100122
1,553	3,66300366300365
1,5535	3,66300366300365
1,554	3,66300366300365
1,5545	8,54700854700852
1,555	3,66300366300365
1,5555	3,66300366300365
1,556	3,66300366300365
1,5565	3,66300366300365
1,557	3,66300366300365
1,5575	3,66300366300365
1,558	3,66300366300365
1,5585	3,66300366300365
1,559	3,66300366300365
1,5595	3,66300366300365
1,56	3,66300366300365
1,5605	3,66300366300365
1,561	3,66300366300365
1,5615	3,66300366300365
1,562	3,66300366300365
1,5625	3,66300366300365
1,563	3,66300366300365
1,5635	8,54700854700852
1,564	3,66300366300365
1,5645	8,54700854700852
1,565	8,54700854700852
1,5655	8,54700854700852
1,566	3,66300366300365
1,5665	3,66300366300365
1,567	3,66300366300365
1,5675	3,66300366300365
1,568	8,54700854700852
1,5685	8,54700854700852
1,569	3,66300366300365
1,5695	3,66300366300365
1,57	3,66300366300365
1,5705	3,66300366300365
1,571	3,66300366300365
1,5715	3,66300366300365
1,572	-1,22100122100122
1,5725	-1,22100122100122
1,573	-1,22100122100122
1,5735	3,66300366300365
1,574	3,66300366300365
1,5745	3,66300366300365
1,575	3,66300366300365
1,5755	3,66300366300365
1,576	-1,22100122100122
1,5765	-6,10500610500608
1,577	-6,10500610500608
1,5775	-6,10500610500608
1,578	8,54700854700852
1,5785	23,1990231990231
1,579	23,1990231990231
1,5795	8,54700854700852
1,58	-6,10500610500608
1,5805	-10,989010989011
1,581	-6,10500610500608
1,5815	-1,22100122100122
1,582	3,66300366300365
1,5825	3,66300366300365
1,583	3,66300366300365
1,5835	8,54700854700852
1,584	8,54700854700852
1,5845	8,54700854700852
1,585	8,54700854700852
1,5855	8,54700854700852
1,586	3,66300366300365
1,5865	3,66300366300365
1,587	3,66300366300365
1,5875	3,66300366300365
1,588	3,66300366300365
1,5885	8,54700854700852
1,589	8,54700854700852
1,5895	8,54700854700852
1,59	3,66300366300365
1,5905	3,66300366300365
1,591	-1,22100122100122
1,5915	3,66300366300365
1,592	3,66300366300365
1,5925	3,66300366300365
1,593	3,66300366300365
1,5935	3,66300366300365
1,594	3,66300366300365
1,5945	3,66300366300365
1,595	3,66300366300365
1,5955	3,66300366300365
1,596	3,66300366300365
1,5965	3,66300366300365
1,597	8,54700854700852
1,5975	8,54700854700852
1,598	8,54700854700852
1,5985	3,66300366300365
1,599	3,66300366300365
1,5995	3,66300366300365
1,6	3,66300366300365
1,6005	3,66300366300365
1,601	3,66300366300365
1,6015	3,66300366300365
1,602	3,66300366300365
1,6025	3,66300366300365
1,603	3,66300366300365
1,6035	3,66300366300365
1,604	3,66300366300365
1,6045	3,66300366300365
1,605	-1,22100122100122
1,6055	3,66300366300365
1,606	3,66300366300365
1,6065	3,66300366300365
1,607	3,66300366300365
1,6075	8,54700854700852
1,608	8,54700854700852
1,6085	8,54700854700852
1,609	3,66300366300365
1,6095	3,66300366300365
1,61	-1,22100122100122
1,6105	3,66300366300365
1,611	3,66300366300365
1,6115	8,54700854700852
1,612	8,54700854700852
1,6125	8,54700854700852
1,613	3,66300366300365
1,6135	-1,22100122100122
1,614	-6,10500610500608
1,6145	-1,22100122100122
1,615	3,66300366300365
1,6155	3,66300366300365
1,616	3,66300366300365
1,6165	8,54700854700852
1,617	3,66300366300365
1,6175	3,66300366300365
1,618	8,54700854700852
1,6185	3,66300366300365
1,619	3,66300366300365
1,6195	3,66300366300365
1,62	3,66300366300365
1,6205	3,66300366300365
1,621	-1,22100122100122
1,6215	3,66300366300365
1,622	3,66300366300365
1,6225	3,66300366300365
1,623	3,66300366300365
1,6235	3,66300366300365
1,624	3,66300366300365
1,6245	3,66300366300365
1,625	3,66300366300365
1,6255	3,66300366300365
1,626	8,54700854700852
1,6265	8,54700854700852
1,627	13,4310134310134
1,6275	8,54700854700852
1,628	3,66300366300365
1,6285	-6,10500610500608
1,629	-10,989010989011
1,6295	-10,989010989011
1,63	-1,22100122100122
1,6305	3,66300366300365
1,631	3,66300366300365
1,6315	3,66300366300365
1,632	3,66300366300365
1,6325	8,54700854700852
1,633	8,54700854700852
1,6335	8,54700854700852
1,634	8,54700854700852
1,6345	8,54700854700852
1,635	8,54700854700852
1,6355	8,54700854700852
1,636	3,66300366300365
1,6365	3,66300366300365
1,637	3,66300366300365
1,6375	3,66300366300365
1,638	3,66300366300365
1,6385	3,66300366300365
1,639	3,66300366300365
1,6395	3,66300366300365
1,64	3,66300366300365
1,6405	3,66300366300365
1,641	3,66300366300365
1,6415	3,66300366300365
1,642	8,54700854700852
1,6425	3,66300366300365
1,643	3,66300366300365
1,6435	3,66300366300365
1,644	3,66300366300365
1,6445	3,66300366300365
1,645	3,66300366300365
1,6455	3,66300366300365
1,646	3,66300366300365
1,6465	8,54700854700852
1,647	8,54700854700852
1,6475	8,54700854700852
1,648	3,66300366300365
1,6485	3,66300366300365
1,649	3,66300366300365
1,6495	3,66300366300365
1,65	-1,22100122100122
1,6505	3,66300366300365
1,651	8,54700854700852
1,6515	8,54700854700852
1,652	8,54700854700852
1,6525	3,66300366300365
1,653	-1,22100122100122
1,6535	-6,10500610500608
1,654	-6,10500610500608
1,6545	-1,22100122100122
1,655	-1,22100122100122
1,6555	-1,22100122100122
1,656	3,66300366300365
1,6565	3,66300366300365
1,657	3,66300366300365
1,6575	3,66300366300365
1,658	3,66300366300365
1,6585	3,66300366300365
1,659	3,66300366300365
1,6595	8,54700854700852
1,66	8,54700854700852
1,6605	8,54700854700852
1,661	3,66300366300365
1,6615	3,66300366300365
1,662	3,66300366300365
1,6625	3,66300366300365
1,663	3,66300366300365
1,6635	3,66300366300365
1,664	3,66300366300365
1,6645	3,66300366300365
1,665	8,54700854700852
1,6655	3,66300366300365
1,666	3,66300366300365
1,6665	3,66300366300365
1,667	3,66300366300365
1,6675	3,66300366300365
1,668	3,66300366300365
1,6685	3,66300366300365
1,669	-1,22100122100122
1,6695	-1,22100122100122
1,67	3,66300366300365
1,6705	3,66300366300365
1,671	8,54700854700852
1,6715	8,54700854700852
1,672	8,54700854700852
1,6725	8,54700854700852
1,673	8,54700854700852
1,6735	3,66300366300365
1,674	3,66300366300365
1,6745	3,66300366300365
1,675	3,66300366300365
1,6755	3,66300366300365
1,676	3,66300366300365
1,6765	3,66300366300365
1,677	3,66300366300365
1,6775	3,66300366300365
1,678	3,66300366300365
1,6785	3,66300366300365
1,679	-1,22100122100122
1,6795	3,66300366300365
1,68	-1,22100122100122
1,6805	3,66300366300365
1,681	3,66300366300365
1,6815	-1,22100122100122
1,682	-1,22100122100122
1,6825	3,66300366300365
1,683	-1,22100122100122
1,6835	3,66300366300365
1,684	3,66300366300365
1,6845	8,54700854700852
1,685	8,54700854700852
1,6855	8,54700854700852
1,686	3,66300366300365
1,6865	8,54700854700852
1,687	8,54700854700852
1,6875	3,66300366300365
1,688	8,54700854700852
1,6885	8,54700854700852
1,689	3,66300366300365
1,6895	8,54700854700852
1,69	3,66300366300365
1,6905	3,66300366300365
1,691	3,66300366300365
1,6915	3,66300366300365
1,692	-1,22100122100122
1,6925	3,66300366300365
1,693	3,66300366300365
1,6935	3,66300366300365
1,694	3,66300366300365
1,6945	3,66300366300365
1,695	3,66300366300365
1,6955	3,66300366300365
1,696	3,66300366300365
1,6965	3,66300366300365
1,697	3,66300366300365
1,6975	3,66300366300365
1,698	3,66300366300365
1,6985	3,66300366300365
1,699	3,66300366300365
1,6995	3,66300366300365
1,7	3,66300366300365
1,7005	3,66300366300365
1,701	3,66300366300365
1,7015	3,66300366300365
1,702	8,54700854700852
1,7025	8,54700854700852
1,703	3,66300366300365
1,7035	3,66300366300365
1,704	3,66300366300365
1,7045	3,66300366300365
1,705	3,66300366300365
1,7055	3,66300366300365
1,706	3,66300366300365
1,7065	-1,22100122100122
1,707	-6,10500610500608
1,7075	-1,22100122100122
1,708	-1,22100122100122
1,7085	8,54700854700852
1,709	23,1990231990231
1,7095	23,1990231990231
1,71	8,54700854700852
1,7105	3,66300366300365
1,711	-1,22100122100122
1,7115	3,66300366300365
1,712	3,66300366300365
1,7125	3,66300366300365
1,713	3,66300366300365
1,7135	3,66300366300365
1,714	3,66300366300365
1,7145	-1,22100122100122
1,715	-1,22100122100122
1,7155	-6,10500610500608
1,716	-10,989010989011
1,7165	-6,10500610500608
1,717	-6,10500610500608
1,7175	-1,22100122100122
1,718	3,66300366300365
1,7185	8,54700854700852
1,719	8,54700854700852
1,7195	13,4310134310134
1,72	8,54700854700852
1,7205	8,54700854700852
1,721	8,54700854700852
1,7215	3,66300366300365
1,722	3,66300366300365
1,7225	3,66300366300365
1,723	3,66300366300365
1,7235	3,66300366300365
1,724	3,66300366300365
1,7245	8,54700854700852
1,725	8,54700854700852
1,7255	3,66300366300365
1,726	8,54700854700852
1,7265	3,66300366300365
1,727	8,54700854700852
1,7275	8,54700854700852
1,728	8,54700854700852
1,7285	3,66300366300365
1,729	3,66300366300365
1,7295	3,66300366300365
1,73	3,66300366300365
1,7305	3,66300366300365
1,731	3,66300366300365
1,7315	8,54700854700852
1,732	3,66300366300365
1,7325	3,66300366300365
1,733	-1,22100122100122
1,7335	3,66300366300365
1,734	3,66300366300365
1,7345	-1,22100122100122
1,735	3,66300366300365
1,7355	3,66300366300365
1,736	3,66300366300365
1,7365	3,66300366300365
1,737	3,66300366300365
1,7375	3,66300366300365
1,738	3,66300366300365
1,7385	8,54700854700852
1,739	13,4310134310134
1,7395	18,3150183150183
1,74	23,1990231990231
1,7405	18,3150183150183
1,741	8,54700854700852
1,7415	-1,22100122100122
1,742	-6,10500610500608
1,7425	-6,10500610500608
1,743	-6,10500610500608
1,7435	-1,22100122100122
1,744	3,66300366300365
1,7445	-1,22100122100122
1,745	-1,22100122100122
1,7455	-1,22100122100122
1,746	-1,22100122100122
1,7465	-1,22100122100122
1,747	3,66300366300365
1,7475	3,66300366300365
1,748	3,66300366300365
1,7485	8,54700854700852
1,749	13,4310134310134
1,7495	8,54700854700852
1,75	8,54700854700852
1,7505	8,54700854700852
1,751	8,54700854700852
1,7515	3,66300366300365
1,752	3,66300366300365
1,7525	3,66300366300365
1,753	3,66300366300365
1,7535	3,66300366300365
1,754	3,66300366300365
1,7545	3,66300366300365
1,755	3,66300366300365
1,7555	3,66300366300365
1,756	3,66300366300365
1,7565	3,66300366300365
1,757	3,66300366300365
1,7575	3,66300366300365
1,758	3,66300366300365
1,7585	3,66300366300365
1,759	8,54700854700852
1,7595	8,54700854700852
1,76	3,66300366300365
1,7605	3,66300366300365
1,761	3,66300366300365
1,7615	3,66300366300365
1,762	3,66300366300365
1,7625	3,66300366300365
1,763	3,66300366300365
1,7635	3,66300366300365
1,764	3,66300366300365
1,7645	3,66300366300365
1,765	3,66300366300365
1,7655	3,66300366300365
1,766	3,66300366300365
1,7665	-1,22100122100122
1,767	3,66300366300365
1,7675	3,66300366300365
1,768	3,66300366300365
1,7685	3,66300366300365
1,769	3,66300366300365
1,7695	3,66300366300365
1,77	8,54700854700852
1,7705	8,54700854700852
1,771	8,54700854700852
1,7715	8,54700854700852
1,772	8,54700854700852
1,7725	8,54700854700852
1,773	3,66300366300365
1,7735	3,66300366300365
1,774	-1,22100122100122
1,7745	-1,22100122100122
1,775	-1,22100122100122
1,7755	-1,22100122100122
1,776	-1,22100122100122
1,7765	3,66300366300365
1,777	8,54700854700852
1,7775	8,54700854700852
1,778	8,54700854700852
1,7785	3,66300366300365
1,779	-1,22100122100122
1,7795	-1,22100122100122
1,78	-1,22100122100122
1,7805	3,66300366300365
1,781	3,66300366300365
1,7815	8,54700854700852
1,782	3,66300366300365
1,7825	3,66300366300365
1,783	3,66300366300365
1,7835	3,66300366300365
1,784	3,66300366300365
1,7845	3,66300366300365
1,785	3,66300366300365
1,7855	3,66300366300365
1,786	8,54700854700852
1,7865	8,54700854700852
1,787	8,54700854700852
1,7875	8,54700854700852
1,788	8,54700854700852
1,7885	3,66300366300365
1,789	3,66300366300365
1,7895	-1,22100122100122
1,79	-1,22100122100122
1,7905	-6,10500610500608
1,791	-6,10500610500608
1,7915	-1,22100122100122
1,792	8,54700854700852
1,7925	28,083028083028
1,793	28,083028083028
1,7935	8,54700854700852
1,794	-6,10500610500608
1,7945	-10,989010989011
1,795	-10,989010989011
1,7955	-6,10500610500608
1,796	-6,10500610500608
1,7965	-1,22100122100122
1,797	3,66300366300365
1,7975	3,66300366300365
1,798	3,66300366300365
1,7985	3,66300366300365
1,799	3,66300366300365
1,7995	3,66300366300365
1,8	3,66300366300365
1,8005	8,54700854700852
1,801	8,54700854700852
1,8015	3,66300366300365
1,802	8,54700854700852
1,8025	8,54700854700852
1,803	3,66300366300365
1,8035	8,54700854700852
1,804	8,54700854700852
1,8045	3,66300366300365
1,805	3,66300366300365
1,8055	3,66300366300365
1,806	3,66300366300365
1,8065	3,66300366300365
1,807	3,66300366300365
1,8075	3,66300366300365
1,808	3,66300366300365
1,8085	3,66300366300365
1,809	-1,22100122100122
1,8095	-1,22100122100122
1,81	3,66300366300365
1,8105	3,66300366300365
1,811	3,66300366300365
1,8115	3,66300366300365
1,812	3,66300366300365
1,8125	3,66300366300365
1,813	3,66300366300365
1,8135	3,66300366300365
1,814	8,54700854700852
1,8145	8,54700854700852
1,815	8,54700854700852
1,8155	3,66300366300365
1,816	3,66300366300365
1,8165	3,66300366300365
1,817	3,66300366300365
1,8175	3,66300366300365
1,818	3,66300366300365
1,8185	3,66300366300365
1,819	8,54700854700852
1,8195	8,54700854700852
1,82	8,54700854700852
1,8205	8,54700854700852
1,821	8,54700854700852
1,8215	3,66300366300365
1,822	3,66300366300365
1,8225	3,66300366300365
1,823	3,66300366300365
1,8235	3,66300366300365
1,824	3,66300366300365
1,8245	3,66300366300365
1,825	3,66300366300365
1,8255	3,66300366300365
1,826	3,66300366300365
1,8265	3,66300366300365
1,827	3,66300366300365
1,8275	3,66300366300365
1,828	3,66300366300365
1,8285	3,66300366300365
1,829	3,66300366300365
1,8295	3,66300366300365
1,83	3,66300366300365
1,8305	3,66300366300365
1,831	3,66300366300365
1,8315	3,66300366300365
1,832	3,66300366300365
1,8325	3,66300366300365
1,833	3,66300366300365
1,8335	3,66300366300365
1,834	3,66300366300365
1,8345	8,54700854700852
1,835	8,54700854700852
1,8355	3,66300366300365
1,836	8,54700854700852
1,8365	8,54700854700852
1,837	8,54700854700852
1,8375	3,66300366300365
1,838	3,66300366300365
1,8385	3,66300366300365
1,839	-1,22100122100122
1,8395	-1,22100122100122
1,84	-1,22100122100122
1,8405	-1,22100122100122
1,841	3,66300366300365
1,8415	3,66300366300365
1,842	3,66300366300365
1,8425	3,66300366300365
1,843	3,66300366300365
1,8435	3,66300366300365
1,844	3,66300366300365
1,8445	3,66300366300365
1,845	8,54700854700852
1,8455	3,66300366300365
1,846	8,54700854700852
1,8465	8,54700854700852
1,847	3,66300366300365
1,8475	3,66300366300365
1,848	3,66300366300365
1,8485	3,66300366300365
1,849	3,66300366300365
1,8495	3,66300366300365
1,85	8,54700854700852
1,8505	8,54700854700852
1,851	8,54700854700852
1,8515	3,66300366300365
1,852	-1,22100122100122
1,8525	-6,10500610500608
1,853	-1,22100122100122
1,8535	3,66300366300365
1,854	3,66300366300365
1,8545	3,66300366300365
1,855	3,66300366300365
1,8555	3,66300366300365
1,856	3,66300366300365
1,8565	-1,22100122100122
1,857	3,66300366300365
1,8575	3,66300366300365
1,858	-1,22100122100122
1,8585	3,66300366300365
1,859	-1,22100122100122
1,8595	3,66300366300365
1,86	3,66300366300365
1,8605	8,54700854700852
1,861	8,54700854700852
1,8615	13,4310134310134
1,862	8,54700854700852
1,8625	3,66300366300365
1,863	-1,22100122100122
1,8635	-6,10500610500608
1,864	-6,10500610500608
1,8645	-1,22100122100122
1,865	3,66300366300365
1,8655	3,66300366300365
1,866	3,66300366300365
1,8665	3,66300366300365
1,867	3,66300366300365
1,8675	3,66300366300365
1,868	8,54700854700852
1,8685	8,54700854700852
1,869	8,54700854700852
1,8695	3,66300366300365
1,87	3,66300366300365
1,8705	-1,22100122100122
1,871	-6,10500610500608
1,8715	-1,22100122100122
1,872	3,66300366300365
1,8725	8,54700854700852
1,873	18,3150183150183
1,8735	32,9670329670329
1,874	32,9670329670329
1,8745	23,1990231990231
1,875	3,66300366300365
1,8755	-1,22100122100122
1,876	-1,22100122100122
1,8765	3,66300366300365
1,877	8,54700854700852
1,8775	8,54700854700852
1,878	3,66300366300365
1,8785	-1,22100122100122
1,879	-1,22100122100122
1,8795	-1,22100122100122
1,88	-1,22100122100122
1,8805	3,66300366300365
1,881	3,66300366300365
1,8815	3,66300366300365
1,882	3,66300366300365
1,8825	3,66300366300365
1,883	3,66300366300365
1,8835	3,66300366300365
1,884	3,66300366300365
1,8845	3,66300366300365
1,885	3,66300366300365
1,8855	3,66300366300365
1,886	3,66300366300365
1,8865	3,66300366300365
1,887	3,66300366300365
1,8875	3,66300366300365
1,888	3,66300366300365
1,8885	3,66300366300365
1,889	3,66300366300365
1,8895	3,66300366300365
1,89	3,66300366300365
1,8905	3,66300366300365
1,891	3,66300366300365
1,8915	3,66300366300365
1,892	3,66300366300365
1,8925	3,66300366300365
1,893	3,66300366300365
1,8935	3,66300366300365
1,894	-1,22100122100122
1,8945	-1,22100122100122
1,895	-1,22100122100122
1,8955	-1,22100122100122
1,896	-1,22100122100122
1,8965	3,66300366300365
1,897	3,66300366300365
1,8975	3,66300366300365
1,898	3,66300366300365
1,8985	3,66300366300365
1,899	3,66300366300365
1,8995	3,66300366300365
1,9	3,66300366300365
1,9005	3,66300366300365
1,901	3,66300366300365
1,9015	3,66300366300365
1,902	3,66300366300365
1,9025	8,54700854700852
1,903	8,54700854700852
1,9035	8,54700854700852
1,904	3,66300366300365
1,9045	3,66300366300365
1,905	3,66300366300365
1,9055	8,54700854700852
1,906	3,66300366300365
1,9065	3,66300366300365
1,907	3,66300366300365
1,9075	3,66300366300365
1,908	3,66300366300365
1,9085	3,66300366300365
1,909	3,66300366300365
1,9095	3,66300366300365
1,91	3,66300366300365
1,9105	3,66300366300365
1,911	3,66300366300365
1,9115	3,66300366300365
1,912	8,54700854700852
1,9125	8,54700854700852
1,913	8,54700854700852
1,9135	8,54700854700852
1,914	8,54700854700852
1,9145	8,54700854700852
1,915	8,54700854700852
1,9155	3,66300366300365
1,916	3,66300366300365
1,9165	3,66300366300365
1,917	3,66300366300365
1,9175	-1,22100122100122
1,918	3,66300366300365
1,9185	3,66300366300365
1,919	3,66300366300365
1,9195	3,66300366300365
1,92	3,66300366300365
1,9205	8,54700854700852
1,921	3,66300366300365
1,9215	3,66300366300365
1,922	3,66300366300365
1,9225	3,66300366300365
1,923	3,66300366300365
1,9235	3,66300366300365
1,924	8,54700854700852
1,9245	3,66300366300365
1,925	3,66300366300365
1,9255	3,66300366300365
1,926	3,66300366300365
1,9265	8,54700854700852
1,927	8,54700854700852
1,9275	8,54700854700852
1,928	3,66300366300365
1,9285	3,66300366300365
1,929	-6,10500610500608
1,9295	-6,10500610500608
1,93	-6,10500610500608
1,9305	-6,10500610500608
1,931	-1,22100122100122
1,9315	-1,22100122100122
1,932	3,66300366300365
1,9325	-1,22100122100122
1,933	-6,10500610500608
1,9335	-6,10500610500608
1,934	-1,22100122100122
1,9345	-1,22100122100122
1,935	8,54700854700852
1,9355	28,083028083028
1,936	32,9670329670329
1,9365	18,3150183150183
1,937	3,66300366300365
1,9375	-1,22100122100122
1,938	-6,10500610500608
1,9385	-1,22100122100122
1,939	-1,22100122100122
1,9395	-1,22100122100122
1,94	-1,22100122100122
1,9405	3,66300366300365
1,941	3,66300366300365
1,9415	3,66300366300365
1,942	3,66300366300365
1,9425	3,66300366300365
1,943	3,66300366300365
1,9435	3,66300366300365
1,944	3,66300366300365
1,9445	3,66300366300365
1,945	3,66300366300365
1,9455	3,66300366300365
1,946	3,66300366300365
1,9465	3,66300366300365
1,947	3,66300366300365
1,9475	3,66300366300365
1,948	8,54700854700852
1,9485	3,66300366300365
1,949	3,66300366300365
1,9495	3,66300366300365
1,95	3,66300366300365
1,9505	3,66300366300365
1,951	3,66300366300365
1,9515	8,54700854700852
1,952	13,4310134310134
1,9525	8,54700854700852
1,953	8,54700854700852
1,9535	8,54700854700852
1,954	8,54700854700852
1,9545	3,66300366300365
1,955	3,66300366300365
1,9555	3,66300366300365
1,956	3,66300366300365
1,9565	3,66300366300365
1,957	3,66300366300365
1,9575	3,66300366300365
1,958	8,54700854700852
1,9585	8,54700854700852
1,959	3,66300366300365
1,9595	3,66300366300365
1,96	3,66300366300365
1,9605	3,66300366300365
1,961	-1,22100122100122
1,9615	-1,22100122100122
1,962	-1,22100122100122
1,9625	-6,10500610500608
1,963	-6,10500610500608
1,9635	3,66300366300365
1,964	3,66300366300365
1,9645	3,66300366300365
1,965	18,3150183150183
1,9655	18,3150183150183
1,966	13,4310134310134
1,9665	8,54700854700852
1,967	3,66300366300365
1,9675	-6,10500610500608
1,968	-6,10500610500608
1,9685	-6,10500610500608
1,969	-1,22100122100122
1,9695	-1,22100122100122
1,97	3,66300366300365
1,9705	3,66300366300365
1,971	3,66300366300365
1,9715	3,66300366300365
1,972	3,66300366300365
1,9725	3,66300366300365
1,973	8,54700854700852
1,9735	8,54700854700852
1,974	3,66300366300365
1,9745	3,66300366300365
1,975	3,66300366300365
1,9755	3,66300366300365
1,976	3,66300366300365
1,9765	3,66300366300365
1,977	-1,22100122100122
1,9775	-1,22100122100122
1,978	3,66300366300365
1,9785	3,66300366300365
1,979	8,54700854700852
1,9795	13,4310134310134
1,98	8,54700854700852
1,9805	13,4310134310134
1,981	8,54700854700852
1,9815	8,54700854700852
1,982	3,66300366300365
1,9825	3,66300366300365
1,983	-1,22100122100122
1,9835	3,66300366300365
1,984	3,66300366300365
1,9845	3,66300366300365
1,985	3,66300366300365
1,9855	3,66300366300365
1,986	3,66300366300365
1,9865	3,66300366300365
1,987	3,66300366300365
1,9875	3,66300366300365
1,988	3,66300366300365
1,9885	3,66300366300365
1,989	3,66300366300365
1,9895	3,66300366300365
1,99	3,66300366300365
1,9905	8,54700854700852
1,991	8,54700854700852
1,9915	8,54700854700852
1,992	8,54700854700852
1,9925	3,66300366300365
1,993	3,66300366300365
1,9935	3,66300366300365
1,994	8,54700854700852
1,9945	8,54700854700852
1,995	8,54700854700852
1,9955	8,54700854700852
1,996	3,66300366300365
1,9965	-6,10500610500608
1,997	-6,10500610500608
1,9975	-1,22100122100122
1,998	-1,22100122100122
1,9985	-1,22100122100122
1,999	-1,22100122100122
1,9995	3,66300366300365
2	3,66300366300365
2,0005	3,66300366300365
2,001	3,66300366300365
2,0015	3,66300366300365
2,002	3,66300366300365
2,0025	3,66300366300365
2,003	3,66300366300365
2,0035	3,66300366300365
2,004	3,66300366300365
2,0045	3,66300366300365
2,005	3,66300366300365
2,0055	3,66300366300365
2,006	3,66300366300365
2,0065	8,54700854700852
2,007	8,54700854700852
2,0075	8,54700854700852
2,008	8,54700854700852
2,0085	3,66300366300365
2,009	8,54700854700852
2,0095	8,54700854700852
2,01	3,66300366300365
2,0105	3,66300366300365
2,011	3,66300366300365
2,0115	3,66300366300365
2,012	3,66300366300365
2,0125	3,66300366300365
2,013	3,66300366300365
2,0135	3,66300366300365
2,014	3,66300366300365
2,0145	3,66300366300365
2,015	3,66300366300365
2,0155	3,66300366300365
2,016	3,66300366300365
2,0165	3,66300366300365
2,017	3,66300366300365
2,0175	3,66300366300365
2,018	3,66300366300365
2,0185	3,66300366300365
2,019	3,66300366300365
2,0195	3,66300366300365
2,02	3,66300366300365
2,0205	3,66300366300365
2,021	3,66300366300365
2,0215	3,66300366300365
2,022	3,66300366300365
2,0225	3,66300366300365
2,023	-1,22100122100122
2,0235	3,66300366300365
2,024	3,66300366300365
2,0245	-1,22100122100122
2,025	3,66300366300365
2,0255	8,54700854700852
2,026	8,54700854700852
2,0265	8,54700854700852
2,027	3,66300366300365
2,0275	8,54700854700852
2,028	8,54700854700852
2,0285	8,54700854700852
2,029	8,54700854700852
2,0295	3,66300366300365
2,03	3,66300366300365
2,0305	3,66300366300365
2,031	3,66300366300365
2,0315	3,66300366300365
2,032	3,66300366300365
2,0325	3,66300366300365
2,033	3,66300366300365
2,0335	-1,22100122100122
2,034	-1,22100122100122
2,0345	-1,22100122100122
2,035	-1,22100122100122
2,0355	3,66300366300365
2,036	3,66300366300365
2,0365	3,66300366300365
2,037	3,66300366300365
2,0375	3,66300366300365
2,038	8,54700854700852
2,0385	8,54700854700852
2,039	8,54700854700852
2,0395	18,3150183150183
2,04	18,3150183150183
2,0405	18,3150183150183
2,041	18,3150183150183
2,0415	8,54700854700852
2,042	3,66300366300365
2,0425	3,66300366300365
2,043	-6,10500610500608
2,0435	-1,22100122100122
2,044	8,54700854700852
2,0445	23,1990231990231
2,045	18,3150183150183
2,0455	3,66300366300365
2,046	-6,10500610500608
2,0465	-10,989010989011
2,047	-10,989010989011
2,0475	-1,22100122100122
2,048	-1,22100122100122
2,0485	-1,22100122100122
2,049	-1,22100122100122
2,0495	-1,22100122100122
2,05	-1,22100122100122
2,0505	-1,22100122100122
2,051	-1,22100122100122
2,0515	-1,22100122100122
2,052	3,66300366300365
2,0525	3,66300366300365
2,053	3,66300366300365
2,0535	3,66300366300365
2,054	3,66300366300365
2,0545	3,66300366300365
2,055	3,66300366300365
2,0555	3,66300366300365
2,056	3,66300366300365
2,0565	3,66300366300365
2,057	8,54700854700852
2,0575	3,66300366300365
2,058	8,54700854700852
2,0585	3,66300366300365
2,059	8,54700854700852
2,0595	8,54700854700852
2,06	8,54700854700852
2,0605	3,66300366300365
2,061	3,66300366300365
2,0615	3,66300366300365
2,062	3,66300366300365
2,0625	3,66300366300365
2,063	3,66300366300365
2,0635	3,66300366300365
2,064	3,66300366300365
2,0645	3,66300366300365
2,065	3,66300366300365
2,0655	3,66300366300365
2,066	3,66300366300365
2,0665	-1,22100122100122
2,067	3,66300366300365
2,0675	-1,22100122100122
2,068	3,66300366300365
2,0685	3,66300366300365
2,069	8,54700854700852
2,0695	8,54700854700852
2,07	8,54700854700852
2,0705	3,66300366300365
2,071	-1,22100122100122
2,0715	-6,10500610500608
2,072	-6,10500610500608
2,0725	-1,22100122100122
2,073	3,66300366300365
2,0735	8,54700854700852
2,074	8,54700854700852
2,0745	3,66300366300365
2,075	3,66300366300365
2,0755	8,54700854700852
2,076	8,54700854700852
2,0765	3,66300366300365
2,077	8,54700854700852
2,0775	8,54700854700852
2,078	8,54700854700852
2,0785	8,54700854700852
2,079	8,54700854700852
2,0795	8,54700854700852
2,08	3,66300366300365
2,0805	3,66300366300365
2,081	3,66300366300365
2,0815	3,66300366300365
2,082	3,66300366300365
2,0825	8,54700854700852
2,083	8,54700854700852
2,0835	8,54700854700852
2,084	8,54700854700852
2,0845	8,54700854700852
2,085	3,66300366300365
2,0855	3,66300366300365
2,086	3,66300366300365
2,0865	3,66300366300365
2,087	-1,22100122100122
2,0875	-1,22100122100122
2,088	-6,10500610500608
2,0885	-1,22100122100122
2,089	3,66300366300365
2,0895	3,66300366300365
2,09	3,66300366300365
2,0905	3,66300366300365
2,091	8,54700854700852
2,0915	8,54700854700852
2,092	3,66300366300365
2,0925	3,66300366300365
2,093	3,66300366300365
2,0935	3,66300366300365
2,094	3,66300366300365
2,0945	3,66300366300365
2,095	3,66300366300365
2,0955	3,66300366300365
2,096	3,66300366300365
2,0965	3,66300366300365
2,097	8,54700854700852
2,0975	8,54700854700852
2,098	8,54700854700852
2,0985	3,66300366300365
2,099	3,66300366300365
2,0995	3,66300366300365
2,1	-1,22100122100122
2,1005	-1,22100122100122
2,101	3,66300366300365
2,1015	3,66300366300365
2,102	3,66300366300365
2,1025	3,66300366300365
2,103	3,66300366300365
2,1035	3,66300366300365
2,104	3,66300366300365
2,1045	3,66300366300365
2,105	3,66300366300365
2,1055	3,66300366300365
2,106	3,66300366300365
2,1065	3,66300366300365
2,107	3,66300366300365
2,1075	3,66300366300365
2,108	3,66300366300365
2,1085	3,66300366300365
2,109	3,66300366300365
2,1095	3,66300366300365
2,11	3,66300366300365
2,1105	3,66300366300365
2,111	3,66300366300365
2,1115	3,66300366300365
2,112	3,66300366300365
2,1125	3,66300366300365
2,113	3,66300366300365
2,1135	8,54700854700852
2,114	8,54700854700852
2,1145	8,54700854700852
2,115	8,54700854700852
2,1155	8,54700854700852
2,116	8,54700854700852
2,1165	13,4310134310134
2,117	8,54700854700852
2,1175	3,66300366300365
2,118	-1,22100122100122
2,1185	-6,10500610500608
2,119	-10,989010989011
2,1195	-6,10500610500608
2,12	-1,22100122100122
2,1205	-1,22100122100122
2,121	3,66300366300365
2,1215	3,66300366300365
2,122	3,66300366300365
2,1225	3,66300366300365
2,123	3,66300366300365
2,1235	3,66300366300365
2,124	3,66300366300365
2,1245	3,66300366300365
2,125	3,66300366300365
2,1255	8,54700854700852
2,126	8,54700854700852
2,1265	8,54700854700852
2,127	3,66300366300365
2,1275	3,66300366300365
2,128	3,66300366300365
2,1285	3,66300366300365
2,129	3,66300366300365
2,1295	3,66300366300365
2,13	3,66300366300365
2,1305	3,66300366300365
2,131	3,66300366300365
2,1315	3,66300366300365
2,132	3,66300366300365
2,1325	3,66300366300365
2,133	-1,22100122100122
2,1335	3,66300366300365
2,134	3,66300366300365
2,1345	3,66300366300365
2,135	3,66300366300365
2,1355	3,66300366300365
2,136	3,66300366300365
2,1365	3,66300366300365
2,137	3,66300366300365
2,1375	3,66300366300365
2,138	8,54700854700852
2,1385	3,66300366300365
2,139	3,66300366300365
2,1395	3,66300366300365
2,14	-1,22100122100122
2,1405	3,66300366300365
2,141	18,3150183150183
2,1415	28,083028083028
2,142	23,1990231990231
2,1425	3,66300366300365
2,143	-1,22100122100122
2,1435	-1,22100122100122
2,144	-1,22100122100122
2,1445	3,66300366300365
2,145	3,66300366300365
2,1455	-1,22100122100122
2,146	-1,22100122100122
2,1465	-6,10500610500608
2,147	-6,10500610500608
2,1475	-1,22100122100122
2,148	-1,22100122100122
2,1485	3,66300366300365
2,149	3,66300366300365
2,1495	3,66300366300365
2,15	8,54700854700852
2,1505	8,54700854700852
2,151	8,54700854700852
2,1515	8,54700854700852
2,152	8,54700854700852
2,1525	3,66300366300365
2,153	3,66300366300365
2,1535	3,66300366300365
2,154	3,66300366300365
2,1545	3,66300366300365
2,155	-1,22100122100122
2,1555	3,66300366300365
2,156	3,66300366300365
2,1565	3,66300366300365
2,157	3,66300366300365
2,1575	3,66300366300365
2,158	3,66300366300365
2,1585	-1,22100122100122
2,159	3,66300366300365
2,1595	8,54700854700852
2,16	8,54700854700852
2,1605	8,54700854700852
2,161	8,54700854700852
2,1615	8,54700854700852
2,162	8,54700854700852
2,1625	3,66300366300365
2,163	3,66300366300365
2,1635	3,66300366300365
2,164	3,66300366300365
2,1645	3,66300366300365
2,165	3,66300366300365
2,1655	3,66300366300365
2,166	3,66300366300365
2,1665	3,66300366300365
2,167	3,66300366300365
2,1675	3,66300366300365
2,168	3,66300366300365
2,1685	3,66300366300365
2,169	3,66300366300365
2,1695	3,66300366300365
2,17	3,66300366300365
2,1705	3,66300366300365
2,171	3,66300366300365
2,1715	3,66300366300365
2,172	3,66300366300365
2,1725	3,66300366300365
2,173	3,66300366300365
2,1735	8,54700854700852
2,174	8,54700854700852
2,1745	8,54700854700852
2,175	8,54700854700852
2,1755	8,54700854700852
2,176	3,66300366300365
2,1765	3,66300366300365
2,177	3,66300366300365
2,1775	-1,22100122100122
2,178	3,66300366300365
2,1785	3,66300366300365
2,179	3,66300366300365
2,1795	3,66300366300365
2,18	3,66300366300365
2,1805	3,66300366300365
2,181	3,66300366300365
2,1815	3,66300366300365
2,182	3,66300366300365
2,1825	3,66300366300365
2,183	3,66300366300365
2,1835	8,54700854700852
2,184	3,66300366300365
2,1845	3,66300366300365
2,185	3,66300366300365
2,1855	3,66300366300365
2,186	3,66300366300365
2,1865	8,54700854700852
2,187	8,54700854700852
2,1875	8,54700854700852
2,188	3,66300366300365
2,1885	3,66300366300365
2,189	3,66300366300365
2,1895	3,66300366300365
2,19	3,66300366300365
2,1905	3,66300366300365
2,191	3,66300366300365
2,1915	3,66300366300365
2,192	3,66300366300365
2,1925	3,66300366300365
2,193	3,66300366300365
2,1935	3,66300366300365
2,194	8,54700854700852
2,1945	3,66300366300365
2,195	3,66300366300365
2,1955	3,66300366300365
2,196	3,66300366300365
2,1965	3,66300366300365
2,197	3,66300366300365
2,1975	3,66300366300365
2,198	3,66300366300365
2,1985	8,54700854700852
2,199	3,66300366300365
2,1995	3,66300366300365
2,2	3,66300366300365
2,2005	3,66300366300365
2,201	-1,22100122100122
2,2015	3,66300366300365
2,202	3,66300366300365
2,2025	3,66300366300365
2,203	3,66300366300365
2,2035	3,66300366300365
2,204	3,66300366300365
2,2045	3,66300366300365
2,205	3,66300366300365
2,2055	3,66300366300365
2,206	3,66300366300365
2,2065	3,66300366300365
2,207	3,66300366300365
2,2075	3,66300366300365
2,208	3,66300366300365
2,2085	3,66300366300365
2,209	3,66300366300365
2,2095	3,66300366300365
2,21	3,66300366300365
2,2105	3,66300366300365
2,211	3,66300366300365
2,2115	3,66300366300365
2,212	3,66300366300365
2,2125	8,54700854700852
2,213	8,54700854700852
2,2135	8,54700854700852
2,214	3,66300366300365
2,2145	3,66300366300365
2,215	3,66300366300365
2,2155	-1,22100122100122
2,216	3,66300366300365
2,2165	-1,22100122100122
2,217	-1,22100122100122
2,2175	3,66300366300365
2,218	3,66300366300365
2,2185	3,66300366300365
2,219	3,66300366300365
2,2195	8,54700854700852
2,22	8,54700854700852
2,2205	8,54700854700852
2,221	8,54700854700852
2,2215	18,3150183150183
2,222	18,3150183150183
2,2225	18,3150183150183
2,223	18,3150183150183
2,2235	8,54700854700852
2,224	-6,10500610500608
2,2245	-10,989010989011
2,225	-6,10500610500608
2,2255	3,66300366300365
2,226	3,66300366300365
2,2265	8,54700854700852
2,227	13,4310134310134
2,2275	8,54700854700852
2,228	3,66300366300365
2,2285	-1,22100122100122
2,229	-6,10500610500608
2,2295	-6,10500610500608
2,23	-6,10500610500608
2,2305	-6,10500610500608
2,231	-1,22100122100122
2,2315	-1,22100122100122
2,232	3,66300366300365
2,2325	3,66300366300365
2,233	3,66300366300365
2,2335	3,66300366300365
2,234	3,66300366300365
2,2345	3,66300366300365
2,235	3,66300366300365
2,2355	3,66300366300365
2,236	3,66300366300365
2,2365	3,66300366300365
2,237	3,66300366300365
2,2375	3,66300366300365
2,238	3,66300366300365
2,2385	3,66300366300365
2,239	8,54700854700852
2,2395	18,3150183150183
2,24	28,083028083028
2,2405	18,3150183150183
2,241	-1,22100122100122
2,2415	-10,989010989011
2,242	-10,989010989011
2,2425	-6,10500610500608
2,243	-1,22100122100122
2,2435	3,66300366300365
2,244	-1,22100122100122
2,2445	3,66300366300365
2,245	3,66300366300365
2,2455	3,66300366300365
2,246	3,66300366300365
2,2465	8,54700854700852
2,247	8,54700854700852
2,2475	13,4310134310134
2,248	13,4310134310134
2,2485	13,4310134310134
2,249	13,4310134310134
2,2495	8,54700854700852
2,25	8,54700854700852
2,2505	8,54700854700852
2,251	3,66300366300365
2,2515	3,66300366300365
2,252	3,66300366300365
2,2525	3,66300366300365
2,253	3,66300366300365
2,2535	3,66300366300365
2,254	3,66300366300365
2,2545	3,66300366300365
2,255	3,66300366300365
2,2555	3,66300366300365
2,256	3,66300366300365
2,2565	3,66300366300365
2,257	3,66300366300365
2,2575	3,66300366300365
2,258	3,66300366300365
2,2585	3,66300366300365
2,259	-1,22100122100122
2,2595	-6,10500610500608
2,26	-6,10500610500608
2,2605	-6,10500610500608
2,261	-1,22100122100122
2,2615	3,66300366300365
2,262	3,66300366300365
2,2625	8,54700854700852
2,263	8,54700854700852
2,2635	3,66300366300365
2,264	8,54700854700852
2,2645	3,66300366300365
2,265	3,66300366300365
2,2655	3,66300366300365
2,266	3,66300366300365
2,2665	3,66300366300365
2,267	3,66300366300365
2,2675	3,66300366300365
2,268	3,66300366300365
2,2685	3,66300366300365
2,269	3,66300366300365
2,2695	3,66300366300365
2,27	8,54700854700852
2,2705	8,54700854700852
2,271	13,4310134310134
2,2715	8,54700854700852
2,272	3,66300366300365
2,2725	3,66300366300365
2,273	3,66300366300365
2,2735	3,66300366300365
2,274	8,54700854700852
2,2745	3,66300366300365
2,275	3,66300366300365
2,2755	3,66300366300365
2,276	3,66300366300365
2,2765	3,66300366300365
2,277	3,66300366300365
2,2775	3,66300366300365
2,278	3,66300366300365
2,2785	3,66300366300365
2,279	3,66300366300365
2,2795	3,66300366300365
2,28	3,66300366300365
2,2805	3,66300366300365
2,281	3,66300366300365
2,2815	3,66300366300365
2,282	3,66300366300365
2,2825	3,66300366300365
2,283	8,54700854700852
2,2835	3,66300366300365
2,284	8,54700854700852
2,2845	8,54700854700852
2,285	8,54700854700852
2,2855	8,54700854700852
2,286	8,54700854700852
2,2865	13,4310134310134
2,287	8,54700854700852
2,2875	8,54700854700852
2,288	3,66300366300365
2,2885	3,66300366300365
2,289	3,66300366300365
2,2895	3,66300366300365
2,29	3,66300366300365
2,2905	3,66300366300365
2,291	3,66300366300365
2,2915	3,66300366300365
2,292	3,66300366300365
2,2925	-1,22100122100122
2,293	3,66300366300365
2,2935	3,66300366300365
2,294	3,66300366300365
2,2945	3,66300366300365
2,295	3,66300366300365
2,2955	3,66300366300365
2,296	3,66300366300365
2,2965	3,66300366300365
2,297	3,66300366300365
2,2975	3,66300366300365
2,298	3,66300366300365
2,2985	-1,22100122100122
2,299	3,66300366300365
2,2995	3,66300366300365
2,3	3,66300366300365
2,3005	3,66300366300365
2,301	3,66300366300365
2,3015	3,66300366300365
2,302	8,54700854700852
2,3025	8,54700854700852
2,303	8,54700854700852
2,3035	8,54700854700852
2,304	8,54700854700852
2,3045	8,54700854700852
2,305	8,54700854700852
2,3055	3,66300366300365
2,306	3,66300366300365
2,3065	-1,22100122100122
2,307	-1,22100122100122
2,3075	-1,22100122100122
2,308	-1,22100122100122
2,3085	3,66300366300365
2,309	3,66300366300365
2,3095	3,66300366300365
2,31	3,66300366300365
2,3105	3,66300366300365
2,311	3,66300366300365
2,3115	3,66300366300365
2,312	3,66300366300365
2,3125	-1,22100122100122
2,313	-1,22100122100122
2,3135	-1,22100122100122
2,314	3,66300366300365
2,3145	8,54700854700852
2,315	23,1990231990231
2,3155	23,1990231990231
2,316	8,54700854700852
2,3165	-6,10500610500608
2,317	-6,10500610500608
2,3175	-1,22100122100122
2,318	3,66300366300365
2,3185	3,66300366300365
2,319	3,66300366300365
2,3195	3,66300366300365
2,32	3,66300366300365
2,3205	3,66300366300365
2,321	8,54700854700852
2,3215	8,54700854700852
2,322	18,3150183150183
2,3225	18,3150183150183
2,323	18,3150183150183
2,3235	8,54700854700852
2,324	3,66300366300365
2,3245	-1,22100122100122
2,325	-6,10500610500608
2,3255	-6,10500610500608
2,326	-6,10500610500608
2,3265	-1,22100122100122
2,327	-1,22100122100122
2,3275	3,66300366300365
2,328	3,66300366300365
2,3285	3,66300366300365
2,329	3,66300366300365
2,3295	8,54700854700852
2,33	3,66300366300365
2,3305	3,66300366300365
2,331	3,66300366300365
2,3315	3,66300366300365
2,332	3,66300366300365
2,3325	8,54700854700852
2,333	8,54700854700852
2,3335	3,66300366300365
2,334	3,66300366300365
2,3345	-6,10500610500608
2,335	-6,10500610500608
2,3355	-6,10500610500608
2,336	-1,22100122100122
2,3365	3,66300366300365
2,337	3,66300366300365
2,3375	8,54700854700852
2,338	8,54700854700852
2,3385	8,54700854700852
2,339	8,54700854700852
2,3395	8,54700854700852
2,34	8,54700854700852
2,3405	3,66300366300365
2,341	8,54700854700852
2,3415	3,66300366300365
2,342	3,66300366300365
2,3425	-1,22100122100122
2,343	3,66300366300365
2,3435	3,66300366300365
2,344	3,66300366300365
2,3445	3,66300366300365
2,345	3,66300366300365
2,3455	3,66300366300365
2,346	3,66300366300365
2,3465	3,66300366300365
2,347	3,66300366300365
2,3475	3,66300366300365
2,348	3,66300366300365
2,3485	8,54700854700852
2,349	3,66300366300365
2,3495	3,66300366300365
2,35	3,66300366300365
2,3505	3,66300366300365
2,351	3,66300366300365
2,3515	8,54700854700852
2,352	3,66300366300365
2,3525	3,66300366300365
2,353	3,66300366300365
2,3535	3,66300366300365
2,354	3,66300366300365
2,3545	3,66300366300365
2,355	8,54700854700852
2,3555	3,66300366300365
2,356	3,66300366300365
2,3565	3,66300366300365
2,357	3,66300366300365
2,3575	3,66300366300365
2,358	3,66300366300365
2,3585	3,66300366300365
2,359	-1,22100122100122
2,3595	3,66300366300365
2,36	3,66300366300365
2,3605	3,66300366300365
2,361	3,66300366300365
2,3615	3,66300366300365
2,362	3,66300366300365
2,3625	3,66300366300365
2,363	3,66300366300365
2,3635	3,66300366300365
2,364	3,66300366300365
2,3645	3,66300366300365
2,365	3,66300366300365
2,3655	3,66300366300365
2,366	3,66300366300365
2,3665	3,66300366300365
2,367	3,66300366300365
2,3675	3,66300366300365
2,368	3,66300366300365
2,3685	3,66300366300365
2,369	3,66300366300365
2,3695	3,66300366300365
2,37	8,54700854700852
2,3705	8,54700854700852
2,371	3,66300366300365
2,3715	3,66300366300365
2,372	3,66300366300365
2,3725	3,66300366300365
2,373	3,66300366300365
2,3735	3,66300366300365
2,374	3,66300366300365
2,3745	8,54700854700852
2,375	8,54700854700852
2,3755	8,54700854700852
2,376	8,54700854700852
2,3765	3,66300366300365
2,377	3,66300366300365
2,3775	3,66300366300365
2,378	3,66300366300365
2,3785	3,66300366300365
2,379	3,66300366300365
2,3795	8,54700854700852
2,38	3,66300366300365
2,3805	3,66300366300365
2,381	3,66300366300365
2,3815	3,66300366300365
2,382	3,66300366300365
2,3825	8,54700854700852
2,383	3,66300366300365
2,3835	3,66300366300365
2,384	3,66300366300365
2,3845	3,66300366300365
2,385	-1,22100122100122
2,3855	3,66300366300365
2,386	3,66300366300365
2,3865	3,66300366300365
2,387	3,66300366300365
2,3875	3,66300366300365
2,388	-1,22100122100122
2,3885	-1,22100122100122
2,389	-6,10500610500608
2,3895	-6,10500610500608
2,39	-6,10500610500608
2,3905	-1,22100122100122
2,391	3,66300366300365
2,3915	23,1990231990231
2,392	37,8510378510377
2,3925	37,8510378510377
2,393	18,3150183150183
2,3935	-6,10500610500608
2,394	-10,989010989011
2,3945	-6,10500610500608
2,395	-1,22100122100122
2,3955	3,66300366300365
2,396	3,66300366300365
2,3965	-1,22100122100122
2,397	-1,22100122100122
2,3975	-1,22100122100122
2,398	3,66300366300365
2,3985	-1,22100122100122
2,399	-1,22100122100122
2,3995	3,66300366300365
2,4	3,66300366300365
2,4005	3,66300366300365
2,401	3,66300366300365
2,4015	3,66300366300365
2,402	3,66300366300365
2,4025	3,66300366300365
2,403	3,66300366300365
2,4035	3,66300366300365
2,404	3,66300366300365
2,4045	8,54700854700852
2,405	8,54700854700852
2,4055	3,66300366300365
2,406	3,66300366300365
2,4065	3,66300366300365
2,407	8,54700854700852
2,4075	8,54700854700852
2,408	8,54700854700852
2,4085	8,54700854700852
2,409	8,54700854700852
2,4095	8,54700854700852
2,41	13,4310134310134
2,4105	8,54700854700852
2,411	3,66300366300365
2,4115	3,66300366300365
2,412	3,66300366300365
2,4125	3,66300366300365
2,413	3,66300366300365
2,4135	3,66300366300365
2,414	3,66300366300365
2,4145	3,66300366300365
2,415	3,66300366300365
2,4155	3,66300366300365
2,416	-1,22100122100122
2,4165	-1,22100122100122
2,417	3,66300366300365
2,4175	-1,22100122100122
2,418	3,66300366300365
2,4185	3,66300366300365
2,419	3,66300366300365
2,4195	3,66300366300365
2,42	3,66300366300365
2,4205	8,54700854700852
2,421	3,66300366300365
2,4215	3,66300366300365
2,422	3,66300366300365
2,4225	3,66300366300365
2,423	3,66300366300365
2,4235	3,66300366300365
2,424	-1,22100122100122
2,4245	3,66300366300365
2,425	3,66300366300365
2,4255	3,66300366300365
2,426	3,66300366300365
2,4265	8,54700854700852
2,427	8,54700854700852
2,4275	8,54700854700852
2,428	3,66300366300365
2,4285	-1,22100122100122
2,429	-1,22100122100122
2,4295	-1,22100122100122
2,43	-1,22100122100122
2,4305	-1,22100122100122
2,431	-6,10500610500608
2,4315	-1,22100122100122
2,432	3,66300366300365
2,4325	3,66300366300365
2,433	3,66300366300365
2,4335	-1,22100122100122
2,434	3,66300366300365
2,4345	3,66300366300365
2,435	8,54700854700852
2,4355	8,54700854700852
2,436	3,66300366300365
2,4365	8,54700854700852
2,437	8,54700854700852
2,4375	13,4310134310134
2,438	13,4310134310134
2,4385	8,54700854700852
2,439	8,54700854700852
2,4395	8,54700854700852
2,44	3,66300366300365
2,4405	3,66300366300365
2,441	3,66300366300365
2,4415	3,66300366300365
2,442	8,54700854700852
2,4425	3,66300366300365
2,443	3,66300366300365
2,4435	-1,22100122100122
2,444	-6,10500610500608
2,4445	-6,10500610500608
2,445	-1,22100122100122
2,4455	-1,22100122100122
2,446	3,66300366300365
2,4465	3,66300366300365
2,447	3,66300366300365
2,4475	8,54700854700852
2,448	3,66300366300365
2,4485	3,66300366300365
2,449	3,66300366300365
2,4495	3,66300366300365
2,45	3,66300366300365
2,4505	8,54700854700852
2,451	8,54700854700852
2,4515	8,54700854700852
2,452	8,54700854700852
2,4525	8,54700854700852
2,453	8,54700854700852
2,4535	3,66300366300365
2,454	3,66300366300365
2,4545	8,54700854700852
2,455	8,54700854700852
2,4555	8,54700854700852
2,456	8,54700854700852
2,4565	8,54700854700852
2,457	3,66300366300365
2,4575	3,66300366300365
2,458	3,66300366300365
2,4585	3,66300366300365
2,459	-1,22100122100122
2,4595	3,66300366300365
2,46	3,66300366300365
2,4605	3,66300366300365
2,461	3,66300366300365
2,4615	3,66300366300365
2,462	3,66300366300365
2,4625	3,66300366300365
2,463	3,66300366300365
2,4635	3,66300366300365
2,464	8,54700854700852
2,4645	8,54700854700852
2,465	8,54700854700852
2,4655	3,66300366300365
2,466	3,66300366300365
2,4665	3,66300366300365
2,467	3,66300366300365
2,4675	3,66300366300365
2,468	3,66300366300365
2,4685	3,66300366300365
2,469	3,66300366300365
2,4695	3,66300366300365
2,47	-1,22100122100122
2,4705	-1,22100122100122
2,471	3,66300366300365
2,4715	3,66300366300365
2,472	8,54700854700852
2,4725	3,66300366300365
2,473	3,66300366300365
2,4735	3,66300366300365
2,474	-1,22100122100122
2,4745	-1,22100122100122
2,475	-1,22100122100122
2,4755	8,54700854700852
2,476	23,1990231990231
2,4765	23,1990231990231
2,477	8,54700854700852
2,4775	-6,10500610500608
2,478	-10,989010989011
2,4785	-10,989010989011
2,479	-6,10500610500608
2,4795	-1,22100122100122
2,48	3,66300366300365
2,4805	-1,22100122100122
2,481	-1,22100122100122
2,4815	-1,22100122100122
2,482	3,66300366300365
2,4825	3,66300366300365
2,483	3,66300366300365
2,4835	3,66300366300365
2,484	3,66300366300365
2,4845	3,66300366300365
2,485	3,66300366300365
2,4855	3,66300366300365
2,486	3,66300366300365
2,4865	8,54700854700852
2,487	8,54700854700852
2,4875	8,54700854700852
2,488	8,54700854700852
2,4885	3,66300366300365
2,489	3,66300366300365
2,4895	3,66300366300365
2,49	3,66300366300365
2,4905	8,54700854700852
2,491	13,4310134310134
2,4915	8,54700854700852
2,492	3,66300366300365
2,4925	3,66300366300365
2,493	3,66300366300365
2,4935	8,54700854700852
2,494	8,54700854700852
2,4945	3,66300366300365
2,495	3,66300366300365
2,4955	3,66300366300365
2,496	3,66300366300365
2,4965	3,66300366300365
2,497	8,54700854700852
2,4975	8,54700854700852
2,498	3,66300366300365
2,4985	3,66300366300365
2,499	3,66300366300365
2,4995	3,66300366300365
2,5	3,66300366300365
2,5005	-1,22100122100122
2,501	-1,22100122100122
2,5015	3,66300366300365
2,502	3,66300366300365
2,5025	3,66300366300365
2,503	3,66300366300365
2,5035	3,66300366300365
2,504	3,66300366300365
2,5045	3,66300366300365
2,505	8,54700854700852
2,5055	8,54700854700852
2,506	8,54700854700852
2,5065	8,54700854700852
2,507	8,54700854700852
2,5075	8,54700854700852
2,508	8,54700854700852
2,5085	3,66300366300365
2,509	8,54700854700852
2,5095	3,66300366300365
2,51	3,66300366300365
2,5105	3,66300366300365
2,511	3,66300366300365
2,5115	3,66300366300365
2,512	3,66300366300365
2,5125	8,54700854700852
2,513	3,66300366300365
2,5135	3,66300366300365
2,514	3,66300366300365
2,5145	3,66300366300365
2,515	3,66300366300365
2,5155	3,66300366300365
2,516	3,66300366300365
2,5165	3,66300366300365
2,517	3,66300366300365
2,5175	3,66300366300365
2,518	3,66300366300365
2,5185	3,66300366300365
2,519	3,66300366300365
2,5195	3,66300366300365
2,52	3,66300366300365
2,5205	3,66300366300365
2,521	3,66300366300365
2,5215	-1,22100122100122
2,522	-1,22100122100122
2,5225	3,66300366300365
2,523	3,66300366300365
2,5235	3,66300366300365
2,524	3,66300366300365
2,5245	3,66300366300365
2,525	8,54700854700852
2,5255	13,4310134310134
2,526	13,4310134310134
2,5265	13,4310134310134
2,527	8,54700854700852
2,5275	3,66300366300365
2,528	-6,10500610500608
2,5285	-6,10500610500608
2,529	-6,10500610500608
2,5295	-1,22100122100122
2,53	3,66300366300365
2,5305	3,66300366300365
2,531	3,66300366300365
2,5315	3,66300366300365
2,532	3,66300366300365
2,5325	3,66300366300365
2,533	8,54700854700852
2,5335	3,66300366300365
2,534	3,66300366300365
2,5345	3,66300366300365
2,535	3,66300366300365
2,5355	3,66300366300365
2,536	3,66300366300365
2,5365	3,66300366300365
2,537	3,66300366300365
2,5375	8,54700854700852
2,538	8,54700854700852
2,5385	8,54700854700852
2,539	8,54700854700852
2,5395	8,54700854700852
2,54	3,66300366300365
2,5405	3,66300366300365
