Time(s)	BBT_EXT
0	-30,5250305250304
0,0005	-20,7570207570207
0,001	-15,8730158730158
0,0015	-20,7570207570207
0,002	-10,989010989011
0,0025	28,083028083028
0,003	69,5970695970694
0,0035	103,785103785103
0,004	108,669108669108
0,0045	94,0170940170937
0,005	74,4810744810742
0,0055	54,9450549450548
0,006	32,9670329670329
0,0065	23,1990231990231
0,007	18,3150183150183
0,0075	18,3150183150183
0,008	28,083028083028
0,0085	32,9670329670329
0,009	32,9670329670329
0,0095	23,1990231990231
0,01	13,4310134310134
0,0105	3,66300366300365
0,011	-1,22100122100122
0,0115	-15,8730158730158
0,012	-30,5250305250304
0,0125	-35,4090354090353
0,013	-25,6410256410256
0,0135	-10,989010989011
0,014	-10,989010989011
0,0145	-10,989010989011
0,015	-20,7570207570207
0,0155	-20,7570207570207
0,016	-10,989010989011
0,0165	3,66300366300365
0,017	8,54700854700852
0,0175	13,4310134310134
0,018	18,3150183150183
0,0185	18,3150183150183
0,019	18,3150183150183
0,0195	13,4310134310134
0,02	13,4310134310134
0,0205	13,4310134310134
0,021	13,4310134310134
0,0215	8,54700854700852
0,022	-1,22100122100122
0,0225	-1,22100122100122
0,023	3,66300366300365
0,0235	8,54700854700852
0,024	13,4310134310134
0,0245	13,4310134310134
0,025	18,3150183150183
0,0255	8,54700854700852
0,026	3,66300366300365
0,0265	3,66300366300365
0,027	3,66300366300365
0,0275	-1,22100122100122
0,028	-10,989010989011
0,0285	-30,5250305250304
0,029	-40,2930402930402
0,0295	-30,5250305250304
0,03	-10,989010989011
0,0305	-1,22100122100122
0,031	13,4310134310134
0,0315	28,083028083028
0,032	23,1990231990231
0,0325	18,3150183150183
0,033	8,54700854700852
0,0335	8,54700854700852
0,034	18,3150183150183
0,0345	37,8510378510377
0,035	47,6190476190475
0,0355	47,6190476190475
0,036	42,7350427350426
0,0365	28,083028083028
0,037	23,1990231990231
0,0375	13,4310134310134
0,038	3,66300366300365
0,0385	3,66300366300365
0,039	-1,22100122100122
0,0395	-6,10500610500608
0,04	-6,10500610500608
0,0405	-10,989010989011
0,041	-10,989010989011
0,0415	-15,8730158730158
0,042	-15,8730158730158
0,0425	-15,8730158730158
0,043	-15,8730158730158
0,0435	-10,989010989011
0,044	-10,989010989011
0,0445	-10,989010989011
0,045	3,66300366300365
0,0455	3,66300366300365
0,046	3,66300366300365
0,0465	-1,22100122100122
0,047	-1,22100122100122
0,0475	3,66300366300365
0,048	3,66300366300365
0,0485	-10,989010989011
0,049	-20,7570207570207
0,0495	-10,989010989011
0,05	13,4310134310134
0,0505	28,083028083028
0,051	32,9670329670329
0,0515	47,6190476190475
0,052	47,6190476190475
0,0525	32,9670329670329
0,053	18,3150183150183
0,0535	3,66300366300365
0,054	-1,22100122100122
0,0545	-6,10500610500608
0,055	-10,989010989011
0,0555	-10,989010989011
0,056	-10,989010989011
0,0565	-6,10500610500608
0,057	-6,10500610500608
0,0575	-10,989010989011
0,058	-6,10500610500608
0,0585	3,66300366300365
0,059	18,3150183150183
0,0595	23,1990231990231
0,06	23,1990231990231
0,0605	13,4310134310134
0,061	3,66300366300365
0,0615	-6,10500610500608
0,062	-10,989010989011
0,0625	-10,989010989011
0,063	-10,989010989011
0,0635	-6,10500610500608
0,064	-6,10500610500608
0,0645	-1,22100122100122
0,065	3,66300366300365
0,0655	13,4310134310134
0,066	18,3150183150183
0,0665	13,4310134310134
0,067	3,66300366300365
0,0675	-6,10500610500608
0,068	-10,989010989011
0,0685	-10,989010989011
0,069	-10,989010989011
0,0695	-10,989010989011
0,07	-10,989010989011
0,0705	-6,10500610500608
0,071	3,66300366300365
0,0715	8,54700854700852
0,072	32,9670329670329
0,0725	54,9450549450548
0,073	54,9450549450548
0,0735	47,6190476190475
0,074	28,083028083028
0,0745	13,4310134310134
0,075	3,66300366300365
0,0755	3,66300366300365
0,076	-1,22100122100122
0,0765	-6,10500610500608
0,077	-10,989010989011
0,0775	-10,989010989011
0,078	-10,989010989011
0,0785	-10,989010989011
0,079	-10,989010989011
0,0795	-10,989010989011
0,08	-6,10500610500608
0,0805	3,66300366300365
0,081	3,66300366300365
0,0815	8,54700854700852
0,082	3,66300366300365
0,0825	3,66300366300365
0,083	3,66300366300365
0,0835	3,66300366300365
0,084	-1,22100122100122
0,0845	3,66300366300365
0,085	3,66300366300365
0,0855	3,66300366300365
0,086	3,66300366300365
0,0865	8,54700854700852
0,087	8,54700854700852
0,0875	13,4310134310134
0,088	8,54700854700852
0,0885	3,66300366300365
0,089	3,66300366300365
0,0895	3,66300366300365
0,09	8,54700854700852
0,0905	8,54700854700852
0,091	8,54700854700852
0,0915	8,54700854700852
0,092	8,54700854700852
0,0925	3,66300366300365
0,093	8,54700854700852
0,0935	13,4310134310134
0,094	8,54700854700852
0,0945	8,54700854700852
0,095	3,66300366300365
0,0955	3,66300366300365
0,096	-1,22100122100122
0,0965	-6,10500610500608
0,097	-6,10500610500608
0,0975	-1,22100122100122
0,098	-1,22100122100122
0,0985	-1,22100122100122
0,099	-6,10500610500608
0,0995	-10,989010989011
0,1	-1,22100122100122
0,1005	3,66300366300365
0,101	8,54700854700852
0,1015	8,54700854700852
0,102	8,54700854700852
0,1025	13,4310134310134
0,103	23,1990231990231
0,1035	47,6190476190475
0,104	59,8290598290596
0,1045	54,9450549450548
0,105	32,9670329670329
0,1055	23,1990231990231
0,106	13,4310134310134
0,1065	8,54700854700852
0,107	-1,22100122100122
0,1075	-10,989010989011
0,108	-30,5250305250304
0,1085	-45,177045177045
0,109	-62,2710622710621
0,1095	-67,1550671550669
0,11	-57,3870573870572
0,1105	-45,177045177045
0,111	-25,6410256410256
0,1115	-1,22100122100122
0,112	18,3150183150183
0,1125	28,083028083028
0,113	37,8510378510377
0,1135	37,8510378510377
0,114	28,083028083028
0,1145	13,4310134310134
0,115	3,66300366300365
0,1155	-1,22100122100122
0,116	3,66300366300365
0,1165	18,3150183150183
0,117	23,1990231990231
0,1175	8,54700854700852
0,118	3,66300366300365
0,1185	8,54700854700852
0,119	18,3150183150183
0,1195	18,3150183150183
0,12	8,54700854700852
0,1205	3,66300366300365
0,121	-15,8730158730158
0,1215	-30,5250305250304
0,122	-30,5250305250304
0,1225	-30,5250305250304
0,123	-10,989010989011
0,1235	-1,22100122100122
0,124	8,54700854700852
0,1245	18,3150183150183
0,125	18,3150183150183
0,1255	23,1990231990231
0,126	28,083028083028
0,1265	47,6190476190475
0,127	47,6190476190475
0,1275	47,6190476190475
0,128	37,8510378510377
0,1285	28,083028083028
0,129	13,4310134310134
0,1295	3,66300366300365
0,13	-10,989010989011
0,1305	-15,8730158730158
0,131	-6,10500610500608
0,1315	23,1990231990231
0,132	37,8510378510377
0,1325	23,1990231990231
0,133	-10,989010989011
0,1335	-30,5250305250304
0,134	-30,5250305250304
0,1345	-20,7570207570207
0,135	-10,989010989011
0,1355	-10,989010989011
0,136	-10,989010989011
0,1365	-10,989010989011
0,137	-10,989010989011
0,1375	-10,989010989011
0,138	-1,22100122100122
0,1385	3,66300366300365
0,139	18,3150183150183
0,1395	47,6190476190475
0,14	74,4810744810742
0,1405	98,9010989010986
0,141	94,0170940170937
0,1415	64,7130647130645
0,142	32,9670329670329
0,1425	3,66300366300365
0,143	-15,8730158730158
0,1435	-20,7570207570207
0,144	-15,8730158730158
0,1445	-10,989010989011
0,145	-10,989010989011
0,1455	-15,8730158730158
0,146	-15,8730158730158
0,1465	-10,989010989011
0,147	8,54700854700852
0,1475	28,083028083028
0,148	32,9670329670329
0,1485	32,9670329670329
0,149	28,083028083028
0,1495	8,54700854700852
0,15	-20,7570207570207
0,1505	-30,5250305250304
0,151	-30,5250305250304
0,1515	-30,5250305250304
0,152	-30,5250305250304
0,1525	-30,5250305250304
0,153	-20,7570207570207
0,1535	-10,989010989011
0,154	-1,22100122100122
0,1545	-1,22100122100122
0,155	-1,22100122100122
0,1555	3,66300366300365
0,156	-10,989010989011
0,1565	-20,7570207570207
0,157	-30,5250305250304
0,1575	-30,5250305250304
0,158	-20,7570207570207
0,1585	-10,989010989011
0,159	3,66300366300365
0,1595	8,54700854700852
0,16	18,3150183150183
0,1605	23,1990231990231
0,161	28,083028083028
0,1615	28,083028083028
0,162	28,083028083028
0,1625	28,083028083028
0,163	23,1990231990231
0,1635	23,1990231990231
0,164	23,1990231990231
0,1645	23,1990231990231
0,165	23,1990231990231
0,1655	13,4310134310134
0,166	3,66300366300365
0,1665	3,66300366300365
0,167	-1,22100122100122
0,1675	-1,22100122100122
0,168	-1,22100122100122
0,1685	-1,22100122100122
0,169	-1,22100122100122
0,1695	-1,22100122100122
0,17	3,66300366300365
0,1705	3,66300366300365
0,171	3,66300366300365
0,1715	3,66300366300365
0,172	3,66300366300365
0,1725	8,54700854700852
0,173	8,54700854700852
0,1735	13,4310134310134
0,174	18,3150183150183
0,1745	18,3150183150183
0,175	13,4310134310134
0,1755	13,4310134310134
0,176	8,54700854700852
0,1765	3,66300366300365
0,177	3,66300366300365
0,1775	-1,22100122100122
0,178	-6,10500610500608
0,1785	-6,10500610500608
0,179	3,66300366300365
0,1795	3,66300366300365
0,18	-6,10500610500608
0,1805	-6,10500610500608
0,181	-10,989010989011
0,1815	-1,22100122100122
0,182	8,54700854700852
0,1825	23,1990231990231
0,183	37,8510378510377
0,1835	32,9670329670329
0,184	23,1990231990231
0,1845	13,4310134310134
0,185	8,54700854700852
0,1855	3,66300366300365
0,186	-6,10500610500608
0,1865	-10,989010989011
0,187	-15,8730158730158
0,1875	-15,8730158730158
0,188	3,66300366300365
0,1885	23,1990231990231
0,189	32,9670329670329
0,1895	32,9670329670329
0,19	28,083028083028
0,1905	18,3150183150183
0,191	-1,22100122100122
0,1915	-10,989010989011
0,192	-15,8730158730158
0,1925	-20,7570207570207
0,193	-20,7570207570207
0,1935	-15,8730158730158
0,194	-20,7570207570207
0,1945	-25,6410256410256
0,195	-25,6410256410256
0,1955	-20,7570207570207
0,196	-6,10500610500608
0,1965	18,3150183150183
0,197	32,9670329670329
0,1975	47,6190476190475
0,198	37,8510378510377
0,1985	23,1990231990231
0,199	18,3150183150183
0,1995	8,54700854700852
0,2	3,66300366300365
0,2005	-1,22100122100122
0,201	-6,10500610500608
0,2015	-10,989010989011
0,202	-10,989010989011
0,2025	3,66300366300365
0,203	3,66300366300365
0,2035	3,66300366300365
0,204	3,66300366300365
0,2045	3,66300366300365
0,205	3,66300366300365
0,2055	8,54700854700852
0,206	3,66300366300365
0,2065	8,54700854700852
0,207	13,4310134310134
0,2075	18,3150183150183
0,208	32,9670329670329
0,2085	54,9450549450548
0,209	59,8290598290596
0,2095	37,8510378510377
0,21	13,4310134310134
0,2105	-1,22100122100122
0,211	-6,10500610500608
0,2115	-10,989010989011
0,212	-20,7570207570207
0,2125	-30,5250305250304
0,213	-40,2930402930402
0,2135	-40,2930402930402
0,214	-40,2930402930402
0,2145	-35,4090354090353
0,215	-25,6410256410256
0,2155	-20,7570207570207
0,216	-20,7570207570207
0,2165	-15,8730158730158
0,217	-10,989010989011
0,2175	-10,989010989011
0,218	-20,7570207570207
0,2185	-20,7570207570207
0,219	-20,7570207570207
0,2195	-6,10500610500608
0,22	18,3150183150183
0,2205	54,9450549450548
0,221	79,3650793650791
0,2215	69,5970695970694
0,222	47,6190476190475
0,2225	42,7350427350426
0,223	37,8510378510377
0,2235	42,7350427350426
0,224	59,8290598290596
0,2245	69,5970695970694
0,225	84,249084249084
0,2255	79,3650793650791
0,226	47,6190476190475
0,2265	8,54700854700852
0,227	-20,7570207570207
0,2275	-40,2930402930402
0,228	-30,5250305250304
0,2285	-15,8730158730158
0,229	-6,10500610500608
0,2295	-6,10500610500608
0,23	-10,989010989011
0,2305	-20,7570207570207
0,231	-20,7570207570207
0,2315	-10,989010989011
0,232	8,54700854700852
0,2325	28,083028083028
0,233	37,8510378510377
0,2335	32,9670329670329
0,234	8,54700854700852
0,2345	-15,8730158730158
0,235	-40,2930402930402
0,2355	-45,177045177045
0,236	-35,4090354090353
0,2365	-30,5250305250304
0,237	-30,5250305250304
0,2375	-45,177045177045
0,238	-62,2710622710621
0,2385	-62,2710622710621
0,239	-52,5030525030523
0,2395	-20,7570207570207
0,24	8,54700854700852
0,2405	32,9670329670329
0,241	42,7350427350426
0,2415	64,7130647130645
0,242	64,7130647130645
0,2425	47,6190476190475
0,243	32,9670329670329
0,2435	42,7350427350426
0,244	59,8290598290596
0,2445	69,5970695970694
0,245	59,8290598290596
0,2455	28,083028083028
0,246	13,4310134310134
0,2465	8,54700854700852
0,247	3,66300366300365
0,2475	-1,22100122100122
0,248	-10,989010989011
0,2485	-10,989010989011
0,249	-10,989010989011
0,2495	-6,10500610500608
0,25	-6,10500610500608
0,2505	3,66300366300365
0,251	3,66300366300365
0,2515	3,66300366300365
0,252	3,66300366300365
0,2525	8,54700854700852
0,253	13,4310134310134
0,2535	13,4310134310134
0,254	8,54700854700852
0,2545	-10,989010989011
0,255	-10,989010989011
0,2555	-20,7570207570207
0,256	-20,7570207570207
0,2565	-20,7570207570207
0,257	-25,6410256410256
0,2575	-20,7570207570207
0,258	-10,989010989011
0,2585	-1,22100122100122
0,259	3,66300366300365
0,2595	18,3150183150183
0,26	28,083028083028
0,2605	28,083028083028
0,261	23,1990231990231
0,2615	13,4310134310134
0,262	3,66300366300365
0,2625	-6,10500610500608
0,263	-10,989010989011
0,2635	-10,989010989011
0,264	-6,10500610500608
0,2645	-1,22100122100122
0,265	-1,22100122100122
0,2655	3,66300366300365
0,266	8,54700854700852
0,2665	18,3150183150183
0,267	23,1990231990231
0,2675	18,3150183150183
0,268	18,3150183150183
0,2685	18,3150183150183
0,269	23,1990231990231
0,2695	18,3150183150183
0,27	8,54700854700852
0,2705	-1,22100122100122
0,271	-10,989010989011
0,2715	-15,8730158730158
0,272	-15,8730158730158
0,2725	-20,7570207570207
0,273	-20,7570207570207
0,2735	-10,989010989011
0,274	-1,22100122100122
0,2745	8,54700854700852
0,275	18,3150183150183
0,2755	28,083028083028
0,276	47,6190476190475
0,2765	64,7130647130645
0,277	64,7130647130645
0,2775	42,7350427350426
0,278	23,1990231990231
0,2785	18,3150183150183
0,279	13,4310134310134
0,2795	-6,10500610500608
0,28	-25,6410256410256
0,2805	-45,177045177045
0,281	-67,1550671550669
0,2815	-72,0390720390718
0,282	-76,9230769230767
0,2825	-72,0390720390718
0,283	-62,2710622710621
0,2835	-40,2930402930402
0,284	-15,8730158730158
0,2845	-1,22100122100122
0,285	18,3150183150183
0,2855	79,3650793650791
0,286	142,857142857143
0,2865	184,371184371185
0,287	174,603174603175
0,2875	128,205128205129
0,288	84,249084249084
0,2885	47,6190476190475
0,289	13,4310134310134
0,2895	-10,989010989011
0,29	-40,2930402930402
0,2905	-62,2710622710621
0,291	-81,8070818070815
0,2915	-81,8070818070815
0,292	-72,0390720390718
0,2925	-57,3870573870572
0,293	-45,177045177045
0,2935	-25,6410256410256
0,294	-10,989010989011
0,2945	-6,10500610500608
0,295	3,66300366300365
0,2955	3,66300366300365
0,296	8,54700854700852
0,2965	13,4310134310134
0,297	13,4310134310134
0,2975	8,54700854700852
0,298	8,54700854700852
0,2985	23,1990231990231
0,299	42,7350427350426
0,2995	54,9450549450548
0,3	54,9450549450548
0,3005	47,6190476190475
0,301	28,083028083028
0,3015	13,4310134310134
0,302	3,66300366300365
0,3025	-1,22100122100122
0,303	-10,989010989011
0,3035	-10,989010989011
0,304	-10,989010989011
0,3045	-10,989010989011
0,305	-20,7570207570207
0,3055	-35,4090354090353
0,306	-40,2930402930402
0,3065	-35,4090354090353
0,307	-20,7570207570207
0,3075	-10,989010989011
0,308	3,66300366300365
0,3085	13,4310134310134
0,309	18,3150183150183
0,3095	18,3150183150183
0,31	18,3150183150183
0,3105	18,3150183150183
0,311	18,3150183150183
0,3115	18,3150183150183
0,312	8,54700854700852
0,3125	8,54700854700852
0,313	13,4310134310134
0,3135	8,54700854700852
0,314	3,66300366300365
0,3145	3,66300366300365
0,315	8,54700854700852
0,3155	23,1990231990231
0,316	28,083028083028
0,3165	23,1990231990231
0,317	18,3150183150183
0,3175	18,3150183150183
0,318	13,4310134310134
0,3185	8,54700854700852
0,319	3,66300366300365
0,3195	-6,10500610500608
0,32	-20,7570207570207
0,3205	-20,7570207570207
0,321	-10,989010989011
0,3215	-10,989010989011
0,322	-10,989010989011
0,3225	-1,22100122100122
0,323	8,54700854700852
0,3235	18,3150183150183
0,324	23,1990231990231
0,3245	23,1990231990231
0,325	8,54700854700852
0,3255	-10,989010989011
0,326	-15,8730158730158
0,3265	-15,8730158730158
0,327	-15,8730158730158
0,3275	-10,989010989011
0,328	-6,10500610500608
0,3285	3,66300366300365
0,329	8,54700854700852
0,3295	18,3150183150183
0,33	23,1990231990231
0,3305	18,3150183150183
0,331	28,083028083028
0,3315	42,7350427350426
0,332	42,7350427350426
0,3325	47,6190476190475
0,333	54,9450549450548
0,3335	47,6190476190475
0,334	28,083028083028
0,3345	13,4310134310134
0,335	-1,22100122100122
0,3355	-10,989010989011
0,336	-10,989010989011
0,3365	-10,989010989011
0,337	-10,989010989011
0,3375	-6,10500610500608
0,338	-6,10500610500608
0,3385	-6,10500610500608
0,339	-6,10500610500608
0,3395	-6,10500610500608
0,34	-10,989010989011
0,3405	-10,989010989011
0,341	-10,989010989011
0,3415	-10,989010989011
0,342	-10,989010989011
0,3425	-6,10500610500608
0,343	3,66300366300365
0,3435	13,4310134310134
0,344	23,1990231990231
0,3445	32,9670329670329
0,345	47,6190476190475
0,3455	37,8510378510377
0,346	28,083028083028
0,3465	13,4310134310134
0,347	-10,989010989011
0,3475	-30,5250305250304
0,348	-45,177045177045
0,3485	-52,5030525030523
0,349	-52,5030525030523
0,3495	-45,177045177045
0,35	-45,177045177045
0,3505	-40,2930402930402
0,351	-30,5250305250304
0,3515	-30,5250305250304
0,352	-15,8730158730158
0,3525	13,4310134310134
0,353	59,8290598290596
0,3535	74,4810744810742
0,354	69,5970695970694
0,3545	54,9450549450548
0,355	32,9670329670329
0,3555	18,3150183150183
0,356	8,54700854700852
0,3565	13,4310134310134
0,357	3,66300366300365
0,3575	-6,10500610500608
0,358	-10,989010989011
0,3585	-10,989010989011
0,359	-15,8730158730158
0,3595	-15,8730158730158
0,36	-10,989010989011
0,3605	3,66300366300365
0,361	13,4310134310134
0,3615	18,3150183150183
0,362	23,1990231990231
0,3625	37,8510378510377
0,363	59,8290598290596
0,3635	64,7130647130645
0,364	47,6190476190475
0,3645	23,1990231990231
0,365	3,66300366300365
0,3655	-6,10500610500608
0,366	-6,10500610500608
0,3665	-10,989010989011
0,367	-6,10500610500608
0,3675	-6,10500610500608
0,368	-1,22100122100122
0,3685	-6,10500610500608
0,369	-6,10500610500608
0,3695	-6,10500610500608
0,37	-1,22100122100122
0,3705	-1,22100122100122
0,371	-1,22100122100122
0,3715	-1,22100122100122
0,372	3,66300366300365
0,3725	3,66300366300365
0,373	8,54700854700852
0,3735	13,4310134310134
0,374	18,3150183150183
0,3745	23,1990231990231
0,375	23,1990231990231
0,3755	13,4310134310134
0,376	-6,10500610500608
0,3765	-30,5250305250304
0,377	-40,2930402930402
0,3775	-35,4090354090353
0,378	-30,5250305250304
0,3785	-30,5250305250304
0,379	-20,7570207570207
0,3795	-15,8730158730158
0,38	-15,8730158730158
0,3805	-20,7570207570207
0,381	-15,8730158730158
0,3815	-6,10500610500608
0,382	3,66300366300365
0,3825	28,083028083028
0,383	64,7130647130645
0,3835	94,0170940170937
0,384	123,321123321123
0,3845	128,205128205129
0,385	128,205128205129
0,3855	113,553113553113
0,386	89,1330891330888
0,3865	42,7350427350426
0,387	8,54700854700852
0,3875	-10,989010989011
0,388	-30,5250305250304
0,3885	-52,5030525030523
0,389	-76,9230769230767
0,3895	-86,6910866910864
0,39	-96,4590964590961
0,3905	-101,343101343101
0,391	-86,6910866910864
0,3915	-52,5030525030523
0,392	-25,6410256410256
0,3925	-10,989010989011
0,393	-1,22100122100122
0,3935	8,54700854700852
0,394	13,4310134310134
0,3945	13,4310134310134
0,395	8,54700854700852
0,3955	13,4310134310134
0,396	18,3150183150183
0,3965	18,3150183150183
0,397	18,3150183150183
0,3975	23,1990231990231
0,398	23,1990231990231
0,3985	23,1990231990231
0,399	23,1990231990231
0,3995	18,3150183150183
0,4	13,4310134310134
0,4005	3,66300366300365
0,401	3,66300366300365
0,4015	-6,10500610500608
0,402	-10,989010989011
0,4025	-15,8730158730158
0,403	-10,989010989011
0,4035	-10,989010989011
0,404	-1,22100122100122
0,4045	-1,22100122100122
0,405	3,66300366300365
0,4055	8,54700854700852
0,406	13,4310134310134
0,4065	8,54700854700852
0,407	13,4310134310134
0,4075	8,54700854700852
0,408	18,3150183150183
0,4085	28,083028083028
0,409	32,9670329670329
0,4095	28,083028083028
0,41	23,1990231990231
0,4105	8,54700854700852
0,411	-6,10500610500608
0,4115	-10,989010989011
0,412	-20,7570207570207
0,4125	-20,7570207570207
0,413	-10,989010989011
0,4135	-20,7570207570207
0,414	-15,8730158730158
0,4145	-6,10500610500608
0,415	3,66300366300365
0,4155	23,1990231990231
0,416	59,8290598290596
0,4165	94,0170940170937
0,417	98,9010989010986
0,4175	74,4810744810742
0,418	54,9450549450548
0,4185	32,9670329670329
0,419	23,1990231990231
0,4195	13,4310134310134
0,42	8,54700854700852
0,4205	-6,10500610500608
0,421	-20,7570207570207
0,4215	-52,5030525030523
0,422	-62,2710622710621
0,4225	-57,3870573870572
0,423	-52,5030525030523
0,4235	-40,2930402930402
0,424	-25,6410256410256
0,4245	-20,7570207570207
0,425	-20,7570207570207
0,4255	-15,8730158730158
0,426	-6,10500610500608
0,4265	3,66300366300365
0,427	8,54700854700852
0,4275	13,4310134310134
0,428	8,54700854700852
0,4285	8,54700854700852
0,429	8,54700854700852
0,4295	8,54700854700852
0,43	8,54700854700852
0,4305	18,3150183150183
0,431	37,8510378510377
0,4315	47,6190476190475
0,432	42,7350427350426
0,4325	42,7350427350426
0,433	37,8510378510377
0,4335	23,1990231990231
0,434	18,3150183150183
0,4345	18,3150183150183
0,435	8,54700854700852
0,4355	8,54700854700852
0,436	3,66300366300365
0,4365	-10,989010989011
0,437	-30,5250305250304
0,4375	-35,4090354090353
0,438	-45,177045177045
0,4385	-52,5030525030523
0,439	-52,5030525030523
0,4395	-35,4090354090353
0,44	-20,7570207570207
0,4405	-10,989010989011
0,441	-6,10500610500608
0,4415	8,54700854700852
0,442	18,3150183150183
0,4425	28,083028083028
0,443	59,8290598290596
0,4435	84,249084249084
0,444	98,9010989010986
0,4445	89,1330891330888
0,445	64,7130647130645
0,4455	37,8510378510377
0,446	18,3150183150183
0,4465	3,66300366300365
0,447	-10,989010989011
0,4475	-10,989010989011
0,448	-15,8730158730158
0,4485	-10,989010989011
0,449	-10,989010989011
0,4495	-10,989010989011
0,45	-6,10500610500608
0,4505	-1,22100122100122
0,451	-1,22100122100122
0,4515	-1,22100122100122
0,452	-1,22100122100122
0,4525	-6,10500610500608
0,453	-6,10500610500608
0,4535	-10,989010989011
0,454	-20,7570207570207
0,4545	-15,8730158730158
0,455	-6,10500610500608
0,4555	-1,22100122100122
0,456	3,66300366300365
0,4565	18,3150183150183
0,457	28,083028083028
0,4575	28,083028083028
0,458	18,3150183150183
0,4585	8,54700854700852
0,459	3,66300366300365
0,4595	3,66300366300365
0,46	3,66300366300365
0,4605	3,66300366300365
0,461	-6,10500610500608
0,4615	-15,8730158730158
0,462	-30,5250305250304
0,4625	-52,5030525030523
0,463	-52,5030525030523
0,4635	-45,177045177045
0,464	-30,5250305250304
0,4645	-10,989010989011
0,465	-1,22100122100122
0,4655	13,4310134310134
0,466	23,1990231990231
0,4665	23,1990231990231
0,467	23,1990231990231
0,4675	23,1990231990231
0,468	18,3150183150183
0,4685	18,3150183150183
0,469	23,1990231990231
0,4695	28,083028083028
0,47	28,083028083028
0,4705	23,1990231990231
0,471	13,4310134310134
0,4715	8,54700854700852
0,472	3,66300366300365
0,4725	3,66300366300365
0,473	3,66300366300365
0,4735	8,54700854700852
0,474	8,54700854700852
0,4745	8,54700854700852
0,475	18,3150183150183
0,4755	18,3150183150183
0,476	23,1990231990231
0,4765	23,1990231990231
0,477	8,54700854700852
0,4775	3,66300366300365
0,478	-1,22100122100122
0,4785	-1,22100122100122
0,479	-1,22100122100122
0,4795	3,66300366300365
0,48	3,66300366300365
0,4805	8,54700854700852
0,481	13,4310134310134
0,4815	18,3150183150183
0,482	18,3150183150183
0,4825	18,3150183150183
0,483	13,4310134310134
0,4835	8,54700854700852
0,484	3,66300366300365
0,4845	-1,22100122100122
0,485	-6,10500610500608
0,4855	-1,22100122100122
0,486	3,66300366300365
0,4865	23,1990231990231
0,487	32,9670329670329
0,4875	37,8510378510377
0,488	23,1990231990231
0,4885	8,54700854700852
0,489	8,54700854700852
0,4895	18,3150183150183
0,49	8,54700854700852
0,4905	-10,989010989011
0,491	-30,5250305250304
0,4915	-30,5250305250304
0,492	-25,6410256410256
0,4925	-20,7570207570207
0,493	-15,8730158730158
0,4935	-20,7570207570207
0,494	-30,5250305250304
0,4945	-30,5250305250304
0,495	-20,7570207570207
0,4955	-20,7570207570207
0,496	-15,8730158730158
0,4965	-15,8730158730158
0,497	-10,989010989011
0,4975	-6,10500610500608
0,498	8,54700854700852
0,4985	23,1990231990231
0,499	28,083028083028
0,4995	37,8510378510377
0,5	42,7350427350426
0,5005	28,083028083028
0,501	13,4310134310134
0,5015	8,54700854700852
0,502	8,54700854700852
0,5025	18,3150183150183
0,503	23,1990231990231
0,5035	32,9670329670329
0,504	37,8510378510377
0,5045	32,9670329670329
0,505	28,083028083028
0,5055	18,3150183150183
0,506	8,54700854700852
0,5065	3,66300366300365
0,507	-1,22100122100122
0,5075	-6,10500610500608
0,508	-10,989010989011
0,5085	-6,10500610500608
0,509	-6,10500610500608
0,5095	-10,989010989011
0,51	-15,8730158730158
0,5105	-20,7570207570207
0,511	-15,8730158730158
0,5115	-6,10500610500608
0,512	8,54700854700852
0,5125	13,4310134310134
0,513	13,4310134310134
0,5135	13,4310134310134
0,514	8,54700854700852
0,5145	8,54700854700852
0,515	18,3150183150183
0,5155	18,3150183150183
0,516	23,1990231990231
0,5165	18,3150183150183
0,517	3,66300366300365
0,5175	-1,22100122100122
0,518	-15,8730158730158
0,5185	-30,5250305250304
0,519	-52,5030525030523
0,5195	-52,5030525030523
0,52	-30,5250305250304
0,5205	-10,989010989011
0,521	3,66300366300365
0,5215	3,66300366300365
0,522	3,66300366300365
0,5225	13,4310134310134
0,523	37,8510378510377
0,5235	79,3650793650791
0,524	103,785103785103
0,5245	113,553113553113
0,525	94,0170940170937
0,5255	59,8290598290596
0,526	28,083028083028
0,5265	-6,10500610500608
0,527	-25,6410256410256
0,5275	-30,5250305250304
0,528	-30,5250305250304
0,5285	-25,6410256410256
0,529	-20,7570207570207
0,5295	-20,7570207570207
0,53	-20,7570207570207
0,5305	-25,6410256410256
0,531	-20,7570207570207
0,5315	-10,989010989011
0,532	3,66300366300365
0,5325	32,9670329670329
0,533	59,8290598290596
0,5335	59,8290598290596
0,534	59,8290598290596
0,5345	42,7350427350426
0,535	18,3150183150183
0,5355	-6,10500610500608
0,536	-15,8730158730158
0,5365	-15,8730158730158
0,537	-20,7570207570207
0,5375	-30,5250305250304
0,538	-35,4090354090353
0,5385	-35,4090354090353
0,539	-10,989010989011
0,5395	3,66300366300365
0,54	8,54700854700852
0,5405	8,54700854700852
0,541	3,66300366300365
0,5415	3,66300366300365
0,542	-1,22100122100122
0,5425	3,66300366300365
0,543	3,66300366300365
0,5435	8,54700854700852
0,544	8,54700854700852
0,5445	8,54700854700852
0,545	8,54700854700852
0,5455	3,66300366300365
0,546	3,66300366300365
0,5465	8,54700854700852
0,547	8,54700854700852
0,5475	-6,10500610500608
0,548	-10,989010989011
0,5485	-10,989010989011
0,549	-6,10500610500608
0,5495	-1,22100122100122
0,55	-6,10500610500608
0,5505	-10,989010989011
0,551	-10,989010989011
0,5515	-10,989010989011
0,552	3,66300366300365
0,5525	3,66300366300365
0,553	-1,22100122100122
0,5535	-10,989010989011
0,554	-10,989010989011
0,5545	-6,10500610500608
0,555	8,54700854700852
0,5555	28,083028083028
0,556	47,6190476190475
0,5565	59,8290598290596
0,557	37,8510378510377
0,5575	23,1990231990231
0,558	8,54700854700852
0,5585	8,54700854700852
0,559	18,3150183150183
0,5595	28,083028083028
0,56	47,6190476190475
0,5605	47,6190476190475
0,561	47,6190476190475
0,5615	28,083028083028
0,562	3,66300366300365
0,5625	-15,8730158730158
0,563	-35,4090354090353
0,5635	-52,5030525030523
0,564	-52,5030525030523
0,5645	-52,5030525030523
0,565	-45,177045177045
0,5655	-30,5250305250304
0,566	-10,989010989011
0,5665	-1,22100122100122
0,567	3,66300366300365
0,5675	13,4310134310134
0,568	18,3150183150183
0,5685	18,3150183150183
0,569	23,1990231990231
0,5695	18,3150183150183
0,57	18,3150183150183
0,5705	18,3150183150183
0,571	13,4310134310134
0,5715	8,54700854700852
0,572	-6,10500610500608
0,5725	-10,989010989011
0,573	-6,10500610500608
0,5735	3,66300366300365
0,574	8,54700854700852
0,5745	13,4310134310134
0,575	13,4310134310134
0,5755	18,3150183150183
0,576	18,3150183150183
0,5765	23,1990231990231
0,577	18,3150183150183
0,5775	13,4310134310134
0,578	8,54700854700852
0,5785	8,54700854700852
0,579	3,66300366300365
0,5795	8,54700854700852
0,58	18,3150183150183
0,5805	28,083028083028
0,581	28,083028083028
0,5815	18,3150183150183
0,582	8,54700854700852
0,5825	-1,22100122100122
0,583	-6,10500610500608
0,5835	-6,10500610500608
0,584	-6,10500610500608
0,5845	-1,22100122100122
0,585	23,1990231990231
0,5855	42,7350427350426
0,586	47,6190476190475
0,5865	42,7350427350426
0,587	28,083028083028
0,5875	23,1990231990231
0,588	13,4310134310134
0,5885	-1,22100122100122
0,589	-20,7570207570207
0,5895	-52,5030525030523
0,59	-62,2710622710621
0,5905	-67,1550671550669
0,591	-67,1550671550669
0,5915	-72,0390720390718
0,592	-57,3870573870572
0,5925	-35,4090354090353
0,593	-10,989010989011
0,5935	13,4310134310134
0,594	32,9670329670329
0,5945	37,8510378510377
0,595	32,9670329670329
0,5955	23,1990231990231
0,596	23,1990231990231
0,5965	23,1990231990231
0,597	13,4310134310134
0,5975	3,66300366300365
0,598	-10,989010989011
0,5985	-30,5250305250304
0,599	-52,5030525030523
0,5995	-40,2930402930402
0,6	-15,8730158730158
0,6005	-6,10500610500608
0,601	3,66300366300365
0,6015	8,54700854700852
0,602	18,3150183150183
0,6025	23,1990231990231
0,603	23,1990231990231
0,6035	37,8510378510377
0,604	74,4810744810742
0,6045	98,9010989010986
0,605	113,553113553113
0,6055	108,669108669108
0,606	89,1330891330888
0,6065	74,4810744810742
0,607	54,9450549450548
0,6075	28,083028083028
0,608	13,4310134310134
0,6085	-6,10500610500608
0,609	-10,989010989011
0,6095	-15,8730158730158
0,61	-20,7570207570207
0,6105	-20,7570207570207
0,611	-25,6410256410256
0,6115	-40,2930402930402
0,612	-57,3870573870572
0,6125	-72,0390720390718
0,613	-72,0390720390718
0,6135	-67,1550671550669
0,614	-52,5030525030523
0,6145	-35,4090354090353
0,615	-10,989010989011
0,6155	3,66300366300365
0,616	18,3150183150183
0,6165	23,1990231990231
0,617	23,1990231990231
0,6175	23,1990231990231
0,618	23,1990231990231
0,6185	18,3150183150183
0,619	18,3150183150183
0,6195	18,3150183150183
0,62	23,1990231990231
0,6205	28,083028083028
0,621	28,083028083028
0,6215	23,1990231990231
0,622	18,3150183150183
0,6225	13,4310134310134
0,623	8,54700854700852
0,6235	-1,22100122100122
0,624	-6,10500610500608
0,6245	-10,989010989011
0,625	-15,8730158730158
0,6255	-20,7570207570207
0,626	-25,6410256410256
0,6265	-30,5250305250304
0,627	-30,5250305250304
0,6275	-10,989010989011
0,628	8,54700854700852
0,6285	32,9670329670329
0,629	32,9670329670329
0,6295	23,1990231990231
0,63	13,4310134310134
0,6305	3,66300366300365
0,631	3,66300366300365
0,6315	28,083028083028
0,632	42,7350427350426
0,6325	42,7350427350426
0,633	42,7350427350426
0,6335	59,8290598290596
0,634	64,7130647130645
0,6345	59,8290598290596
0,635	54,9450549450548
0,6355	42,7350427350426
0,636	23,1990231990231
0,6365	3,66300366300365
0,637	-10,989010989011
0,6375	-30,5250305250304
0,638	-40,2930402930402
0,6385	-45,177045177045
0,639	-52,5030525030523
0,6395	-52,5030525030523
0,64	-45,177045177045
0,6405	-35,4090354090353
0,641	-25,6410256410256
0,6415	-15,8730158730158
0,642	-10,989010989011
0,6425	-6,10500610500608
0,643	3,66300366300365
0,6435	8,54700854700852
0,644	8,54700854700852
0,6445	8,54700854700852
0,645	3,66300366300365
0,6455	3,66300366300365
0,646	3,66300366300365
0,6465	3,66300366300365
0,647	-1,22100122100122
0,6475	3,66300366300365
0,648	8,54700854700852
0,6485	13,4310134310134
0,649	13,4310134310134
0,6495	18,3150183150183
0,65	18,3150183150183
0,6505	13,4310134310134
0,651	8,54700854700852
0,6515	8,54700854700852
0,652	8,54700854700852
0,6525	8,54700854700852
0,653	3,66300366300365
0,6535	3,66300366300365
0,654	3,66300366300365
0,6545	8,54700854700852
0,655	3,66300366300365
0,6555	8,54700854700852
0,656	8,54700854700852
0,6565	8,54700854700852
0,657	3,66300366300365
0,6575	3,66300366300365
0,658	3,66300366300365
0,6585	8,54700854700852
0,659	8,54700854700852
0,6595	3,66300366300365
0,66	3,66300366300365
0,6605	3,66300366300365
0,661	3,66300366300365
0,6615	3,66300366300365
0,662	3,66300366300365
0,6625	8,54700854700852
0,663	3,66300366300365
0,6635	-6,10500610500608
0,664	-10,989010989011
0,6645	-1,22100122100122
0,665	8,54700854700852
0,6655	8,54700854700852
0,666	8,54700854700852
0,6665	13,4310134310134
0,667	18,3150183150183
0,6675	23,1990231990231
0,668	23,1990231990231
0,6685	13,4310134310134
0,669	3,66300366300365
0,6695	-1,22100122100122
0,67	-1,22100122100122
0,6705	-1,22100122100122
0,671	-6,10500610500608
0,6715	-6,10500610500608
0,672	3,66300366300365
0,6725	3,66300366300365
0,673	-1,22100122100122
0,6735	-10,989010989011
0,674	-20,7570207570207
0,6745	-10,989010989011
0,675	-1,22100122100122
0,6755	8,54700854700852
0,676	18,3150183150183
0,6765	18,3150183150183
0,677	8,54700854700852
0,6775	8,54700854700852
0,678	3,66300366300365
0,6785	8,54700854700852
0,679	8,54700854700852
0,6795	8,54700854700852
0,68	8,54700854700852
0,6805	3,66300366300365
0,681	3,66300366300365
0,6815	13,4310134310134
0,682	23,1990231990231
0,6825	28,083028083028
0,683	37,8510378510377
0,6835	47,6190476190475
0,684	32,9670329670329
0,6845	23,1990231990231
0,685	3,66300366300365
0,6855	-6,10500610500608
0,686	-10,989010989011
0,6865	-30,5250305250304
0,687	-35,4090354090353
0,6875	-45,177045177045
0,688	-57,3870573870572
0,6885	-57,3870573870572
0,689	-35,4090354090353
0,6895	-10,989010989011
0,69	-1,22100122100122
0,6905	3,66300366300365
0,691	8,54700854700852
0,6915	13,4310134310134
0,692	8,54700854700852
0,6925	23,1990231990231
0,693	32,9670329670329
0,6935	42,7350427350426
0,694	37,8510378510377
0,6945	23,1990231990231
0,695	8,54700854700852
0,6955	-1,22100122100122
0,696	-6,10500610500608
0,6965	-1,22100122100122
0,697	8,54700854700852
0,6975	3,66300366300365
0,698	8,54700854700852
0,6985	18,3150183150183
0,699	47,6190476190475
0,6995	64,7130647130645
0,7	59,8290598290596
0,7005	37,8510378510377
0,701	18,3150183150183
0,7015	8,54700854700852
0,702	8,54700854700852
0,7025	8,54700854700852
0,703	13,4310134310134
0,7035	8,54700854700852
0,704	3,66300366300365
0,7045	3,66300366300365
0,705	-6,10500610500608
0,7055	-10,989010989011
0,706	-15,8730158730158
0,7065	-25,6410256410256
0,707	-40,2930402930402
0,7075	-45,177045177045
0,708	-40,2930402930402
0,7085	-30,5250305250304
0,709	-15,8730158730158
0,7095	-10,989010989011
0,71	-10,989010989011
0,7105	-10,989010989011
0,711	-10,989010989011
0,7115	-10,989010989011
0,712	-1,22100122100122
0,7125	18,3150183150183
0,713	42,7350427350426
0,7135	47,6190476190475
0,714	32,9670329670329
0,7145	18,3150183150183
0,715	13,4310134310134
0,7155	3,66300366300365
0,716	-6,10500610500608
0,7165	-10,989010989011
0,717	-6,10500610500608
0,7175	18,3150183150183
0,718	32,9670329670329
0,7185	42,7350427350426
0,719	47,6190476190475
0,7195	47,6190476190475
0,72	47,6190476190475
0,7205	32,9670329670329
0,721	23,1990231990231
0,7215	3,66300366300365
0,722	-15,8730158730158
0,7225	-30,5250305250304
0,723	-30,5250305250304
0,7235	-25,6410256410256
0,724	-30,5250305250304
0,7245	-30,5250305250304
0,725	-30,5250305250304
0,7255	-25,6410256410256
0,726	-20,7570207570207
0,7265	-15,8730158730158
0,727	-6,10500610500608
0,7275	8,54700854700852
0,728	28,083028083028
0,7285	47,6190476190475
0,729	47,6190476190475
0,7295	42,7350427350426
0,73	42,7350427350426
0,7305	37,8510378510377
0,731	28,083028083028
0,7315	23,1990231990231
0,732	18,3150183150183
0,7325	-1,22100122100122
0,733	-15,8730158730158
0,7335	-30,5250305250304
0,734	-40,2930402930402
0,7345	-30,5250305250304
0,735	-15,8730158730158
0,7355	-10,989010989011
0,736	-1,22100122100122
0,7365	3,66300366300365
0,737	3,66300366300365
0,7375	3,66300366300365
0,738	-1,22100122100122
0,7385	-1,22100122100122
0,739	8,54700854700852
0,7395	18,3150183150183
0,74	23,1990231990231
0,7405	23,1990231990231
0,741	13,4310134310134
0,7415	8,54700854700852
0,742	3,66300366300365
0,7425	-1,22100122100122
0,743	-6,10500610500608
0,7435	-6,10500610500608
0,744	-6,10500610500608
0,7445	3,66300366300365
0,745	8,54700854700852
0,7455	-1,22100122100122
0,746	-10,989010989011
0,7465	-20,7570207570207
0,747	-15,8730158730158
0,7475	-6,10500610500608
0,748	3,66300366300365
0,7485	8,54700854700852
0,749	8,54700854700852
0,7495	8,54700854700852
0,75	18,3150183150183
0,7505	18,3150183150183
0,751	23,1990231990231
0,7515	23,1990231990231
0,752	23,1990231990231
0,7525	18,3150183150183
0,753	23,1990231990231
0,7535	23,1990231990231
0,754	23,1990231990231
0,7545	28,083028083028
0,755	23,1990231990231
0,7555	8,54700854700852
0,756	-10,989010989011
0,7565	-10,989010989011
0,757	3,66300366300365
0,7575	18,3150183150183
0,758	23,1990231990231
0,7585	18,3150183150183
0,759	8,54700854700852
0,7595	-6,10500610500608
0,76	-10,989010989011
0,7605	-10,989010989011
0,761	-10,989010989011
0,7615	-10,989010989011
0,762	-15,8730158730158
0,7625	-20,7570207570207
0,763	-35,4090354090353
0,7635	-35,4090354090353
0,764	-30,5250305250304
0,7645	-15,8730158730158
0,765	-1,22100122100122
0,7655	18,3150183150183
0,766	28,083028083028
0,7665	28,083028083028
0,767	28,083028083028
0,7675	23,1990231990231
0,768	18,3150183150183
0,7685	18,3150183150183
0,769	13,4310134310134
0,7695	3,66300366300365
0,77	-10,989010989011
0,7705	-20,7570207570207
0,771	-25,6410256410256
0,7715	-30,5250305250304
0,772	-20,7570207570207
0,7725	-20,7570207570207
0,773	-25,6410256410256
0,7735	-25,6410256410256
0,774	-20,7570207570207
0,7745	-6,10500610500608
0,775	32,9670329670329
0,7755	69,5970695970694
0,776	98,9010989010986
0,7765	123,321123321123
0,777	128,205128205129
0,7775	123,321123321123
0,778	98,9010989010986
0,7785	64,7130647130645
0,779	32,9670329670329
0,7795	13,4310134310134
0,78	-6,10500610500608
0,7805	-10,989010989011
0,781	-20,7570207570207
0,7815	-25,6410256410256
0,782	-25,6410256410256
0,7825	-25,6410256410256
0,783	-25,6410256410256
0,7835	-25,6410256410256
0,784	-15,8730158730158
0,7845	-10,989010989011
0,785	-10,989010989011
0,7855	-10,989010989011
0,786	-10,989010989011
0,7865	-10,989010989011
0,787	-20,7570207570207
0,7875	-30,5250305250304
0,788	-30,5250305250304
0,7885	-30,5250305250304
0,789	-30,5250305250304
0,7895	-30,5250305250304
0,79	-15,8730158730158
0,7905	8,54700854700852
0,791	28,083028083028
0,7915	42,7350427350426
0,792	47,6190476190475
0,7925	42,7350427350426
0,793	28,083028083028
0,7935	18,3150183150183
0,794	13,4310134310134
0,7945	3,66300366300365
0,795	-15,8730158730158
0,7955	-45,177045177045
0,796	-57,3870573870572
0,7965	-57,3870573870572
0,797	-52,5030525030523
0,7975	-45,177045177045
0,798	-40,2930402930402
0,7985	-30,5250305250304
0,799	-15,8730158730158
0,7995	-6,10500610500608
0,8	3,66300366300365
0,8005	13,4310134310134
0,801	28,083028083028
0,8015	47,6190476190475
0,802	47,6190476190475
0,8025	42,7350427350426
0,803	37,8510378510377
0,8035	37,8510378510377
0,804	37,8510378510377
0,8045	32,9670329670329
0,805	23,1990231990231
0,8055	18,3150183150183
0,806	23,1990231990231
0,8065	23,1990231990231
0,807	18,3150183150183
0,8075	13,4310134310134
0,808	8,54700854700852
0,8085	3,66300366300365
0,809	8,54700854700852
0,8095	18,3150183150183
0,81	18,3150183150183
0,8105	13,4310134310134
0,811	8,54700854700852
0,8115	8,54700854700852
0,812	-1,22100122100122
0,8125	-10,989010989011
0,813	-10,989010989011
0,8135	-10,989010989011
0,814	-10,989010989011
0,8145	-10,989010989011
0,815	-10,989010989011
0,8155	-15,8730158730158
0,816	-20,7570207570207
0,8165	-10,989010989011
0,817	3,66300366300365
0,8175	18,3150183150183
0,818	28,083028083028
0,8185	47,6190476190475
0,819	59,8290598290596
0,8195	54,9450549450548
0,82	47,6190476190475
0,8205	47,6190476190475
0,821	32,9670329670329
0,8215	18,3150183150183
0,822	3,66300366300365
0,8225	-6,10500610500608
0,823	-10,989010989011
0,8235	-10,989010989011
0,824	-10,989010989011
0,8245	-10,989010989011
0,825	-6,10500610500608
0,8255	-1,22100122100122
0,826	-1,22100122100122
0,8265	-6,10500610500608
0,827	-10,989010989011
0,8275	-10,989010989011
0,828	-10,989010989011
0,8285	-10,989010989011
0,829	-10,989010989011
0,8295	-6,10500610500608
0,83	-1,22100122100122
0,8305	3,66300366300365
0,831	3,66300366300365
0,8315	3,66300366300365
0,832	8,54700854700852
0,8325	8,54700854700852
0,833	8,54700854700852
0,8335	13,4310134310134
0,834	13,4310134310134
0,8345	8,54700854700852
0,835	3,66300366300365
0,8355	-6,10500610500608
0,836	-6,10500610500608
0,8365	-10,989010989011
0,837	-10,989010989011
0,8375	-10,989010989011
0,838	-15,8730158730158
0,8385	-15,8730158730158
0,839	-10,989010989011
0,8395	3,66300366300365
0,84	8,54700854700852
0,8405	-1,22100122100122
0,841	-20,7570207570207
0,8415	-35,4090354090353
0,842	-30,5250305250304
0,8425	-25,6410256410256
0,843	-6,10500610500608
0,8435	28,083028083028
0,844	64,7130647130645
0,8445	74,4810744810742
0,845	59,8290598290596
0,8455	54,9450549450548
0,846	47,6190476190475
0,8465	37,8510378510377
0,847	28,083028083028
0,8475	37,8510378510377
0,848	37,8510378510377
0,8485	28,083028083028
0,849	3,66300366300365
0,8495	-15,8730158730158
0,85	-25,6410256410256
0,8505	-30,5250305250304
0,851	-25,6410256410256
0,8515	-20,7570207570207
0,852	-10,989010989011
0,8525	-6,10500610500608
0,853	-1,22100122100122
0,8535	-1,22100122100122
0,854	-6,10500610500608
0,8545	-10,989010989011
0,855	-6,10500610500608
0,8555	3,66300366300365
0,856	3,66300366300365
0,8565	8,54700854700852
0,857	18,3150183150183
0,8575	18,3150183150183
0,858	13,4310134310134
0,8585	3,66300366300365
0,859	-6,10500610500608
0,8595	-10,989010989011
0,86	-10,989010989011
0,8605	-10,989010989011
0,861	-6,10500610500608
0,8615	3,66300366300365
0,862	-1,22100122100122
0,8625	-6,10500610500608
0,863	-6,10500610500608
0,8635	8,54700854700852
0,864	23,1990231990231
0,8645	37,8510378510377
0,865	47,6190476190475
0,8655	32,9670329670329
0,866	18,3150183150183
0,8665	-6,10500610500608
0,867	-15,8730158730158
0,8675	-25,6410256410256
0,868	-30,5250305250304
0,8685	-30,5250305250304
0,869	-20,7570207570207
0,8695	-6,10500610500608
0,87	8,54700854700852
0,8705	18,3150183150183
0,871	18,3150183150183
0,8715	18,3150183150183
0,872	8,54700854700852
0,8725	3,66300366300365
0,873	-1,22100122100122
0,8735	3,66300366300365
0,874	18,3150183150183
0,8745	23,1990231990231
0,875	28,083028083028
0,8755	18,3150183150183
0,876	13,4310134310134
0,8765	8,54700854700852
0,877	3,66300366300365
0,8775	8,54700854700852
0,878	8,54700854700852
0,8785	3,66300366300365
0,879	3,66300366300365
0,8795	3,66300366300365
0,88	3,66300366300365
0,8805	-1,22100122100122
0,881	3,66300366300365
0,8815	3,66300366300365
0,882	8,54700854700852
0,8825	8,54700854700852
0,883	13,4310134310134
0,8835	13,4310134310134
0,884	8,54700854700852
0,8845	13,4310134310134
0,885	8,54700854700852
0,8855	8,54700854700852
0,886	8,54700854700852
0,8865	8,54700854700852
0,887	3,66300366300365
0,8875	3,66300366300365
0,888	3,66300366300365
0,8885	3,66300366300365
0,889	-1,22100122100122
0,8895	-1,22100122100122
0,89	-1,22100122100122
0,8905	3,66300366300365
0,891	-1,22100122100122
0,8915	3,66300366300365
0,892	23,1990231990231
0,8925	32,9670329670329
0,893	28,083028083028
0,8935	3,66300366300365
0,894	-10,989010989011
0,8945	-15,8730158730158
0,895	-25,6410256410256
0,8955	-40,2930402930402
0,896	-45,177045177045
0,8965	-62,2710622710621
0,897	-62,2710622710621
0,8975	-52,5030525030523
0,898	-30,5250305250304
0,8985	-10,989010989011
0,899	18,3150183150183
0,8995	47,6190476190475
0,9	69,5970695970694
0,9005	84,249084249084
0,901	103,785103785103
0,9015	108,669108669108
0,902	94,0170940170937
0,9025	69,5970695970694
0,903	42,7350427350426
0,9035	23,1990231990231
0,904	8,54700854700852
0,9045	8,54700854700852
0,905	-6,10500610500608
0,9055	-15,8730158730158
0,906	-30,5250305250304
0,9065	-30,5250305250304
0,907	-35,4090354090353
0,9075	-35,4090354090353
0,908	-35,4090354090353
0,9085	-35,4090354090353
0,909	-40,2930402930402
0,9095	-40,2930402930402
0,91	-20,7570207570207
0,9105	-10,989010989011
0,911	3,66300366300365
0,9115	23,1990231990231
0,912	37,8510378510377
0,9125	23,1990231990231
0,913	-6,10500610500608
0,9135	-15,8730158730158
0,914	-10,989010989011
0,9145	-6,10500610500608
0,915	3,66300366300365
0,9155	8,54700854700852
0,916	13,4310134310134
0,9165	13,4310134310134
0,917	18,3150183150183
0,9175	18,3150183150183
0,918	18,3150183150183
0,9185	8,54700854700852
0,919	3,66300366300365
0,9195	-6,10500610500608
0,92	-1,22100122100122
0,9205	8,54700854700852
0,921	18,3150183150183
0,9215	23,1990231990231
0,922	23,1990231990231
0,9225	23,1990231990231
0,923	18,3150183150183
0,9235	8,54700854700852
0,924	3,66300366300365
0,9245	3,66300366300365
0,925	3,66300366300365
0,9255	3,66300366300365
0,926	3,66300366300365
0,9265	3,66300366300365
0,927	3,66300366300365
0,9275	8,54700854700852
0,928	8,54700854700852
0,9285	8,54700854700852
0,929	3,66300366300365
0,9295	3,66300366300365
0,93	8,54700854700852
0,9305	13,4310134310134
0,931	23,1990231990231
0,9315	18,3150183150183
0,932	13,4310134310134
0,9325	13,4310134310134
0,933	8,54700854700852
0,9335	-1,22100122100122
0,934	-1,22100122100122
0,9345	-1,22100122100122
0,935	3,66300366300365
0,9355	3,66300366300365
0,936	-6,10500610500608
0,9365	-10,989010989011
0,937	-15,8730158730158
0,9375	-20,7570207570207
0,938	-30,5250305250304
0,9385	-40,2930402930402
0,939	-45,177045177045
0,9395	-30,5250305250304
0,94	-15,8730158730158
0,9405	-6,10500610500608
0,941	8,54700854700852
0,9415	28,083028083028
0,942	37,8510378510377
0,9425	59,8290598290596
0,943	84,249084249084
0,9435	103,785103785103
0,944	108,669108669108
0,9445	84,249084249084
0,945	47,6190476190475
0,9455	18,3150183150183
0,946	-1,22100122100122
0,9465	-10,989010989011
0,947	-20,7570207570207
0,9475	-20,7570207570207
0,948	-20,7570207570207
0,9485	-25,6410256410256
0,949	-20,7570207570207
0,9495	-15,8730158730158
0,95	-10,989010989011
0,9505	-10,989010989011
0,951	-10,989010989011
0,9515	-10,989010989011
0,952	-10,989010989011
0,9525	-10,989010989011
0,953	-6,10500610500608
0,9535	-1,22100122100122
0,954	-1,22100122100122
0,9545	3,66300366300365
0,955	3,66300366300365
0,9555	3,66300366300365
0,956	3,66300366300365
0,9565	3,66300366300365
0,957	3,66300366300365
0,9575	3,66300366300365
0,958	-1,22100122100122
0,9585	-6,10500610500608
0,959	-6,10500610500608
0,9595	-6,10500610500608
0,96	-6,10500610500608
0,9605	-6,10500610500608
0,961	-10,989010989011
0,9615	-10,989010989011
0,962	-6,10500610500608
0,9625	-1,22100122100122
0,963	3,66300366300365
0,9635	3,66300366300365
0,964	3,66300366300365
0,9645	8,54700854700852
0,965	23,1990231990231
0,9655	28,083028083028
0,966	28,083028083028
0,9665	23,1990231990231
0,967	13,4310134310134
0,9675	3,66300366300365
0,968	-10,989010989011
0,9685	-10,989010989011
0,969	-6,10500610500608
0,9695	3,66300366300365
0,97	8,54700854700852
0,9705	18,3150183150183
0,971	13,4310134310134
0,9715	8,54700854700852
0,972	8,54700854700852
0,9725	8,54700854700852
0,973	8,54700854700852
0,9735	8,54700854700852
0,974	3,66300366300365
0,9745	-6,10500610500608
0,975	-6,10500610500608
0,9755	3,66300366300365
0,976	3,66300366300365
0,9765	3,66300366300365
0,977	3,66300366300365
0,9775	3,66300366300365
0,978	3,66300366300365
0,9785	8,54700854700852
0,979	13,4310134310134
0,9795	13,4310134310134
0,98	13,4310134310134
0,9805	13,4310134310134
0,981	8,54700854700852
0,9815	3,66300366300365
0,982	3,66300366300365
0,9825	3,66300366300365
0,983	-1,22100122100122
0,9835	-1,22100122100122
0,984	-6,10500610500608
0,9845	-6,10500610500608
0,985	-6,10500610500608
0,9855	-10,989010989011
0,986	8,54700854700852
0,9865	23,1990231990231
0,987	32,9670329670329
0,9875	42,7350427350426
0,988	54,9450549450548
0,9885	54,9450549450548
0,989	32,9670329670329
0,9895	18,3150183150183
0,99	8,54700854700852
0,9905	-1,22100122100122
0,991	-1,22100122100122
0,9915	3,66300366300365
0,992	3,66300366300365
0,9925	-10,989010989011
0,993	-30,5250305250304
0,9935	-45,177045177045
0,994	-35,4090354090353
0,9945	-20,7570207570207
0,995	-6,10500610500608
0,9955	-1,22100122100122
0,996	3,66300366300365
0,9965	-6,10500610500608
0,997	-10,989010989011
0,9975	-10,989010989011
0,998	-10,989010989011
0,9985	-6,10500610500608
0,999	-6,10500610500608
0,9995	-1,22100122100122
1	-1,22100122100122
1,0005	-6,10500610500608
1,001	-15,8730158730158
1,0015	-35,4090354090353
1,002	-30,5250305250304
1,0025	-10,989010989011
1,003	8,54700854700852
1,0035	32,9670329670329
1,004	64,7130647130645
1,0045	64,7130647130645
1,005	32,9670329670329
1,0055	13,4310134310134
1,006	-1,22100122100122
1,0065	-10,989010989011
1,007	-25,6410256410256
1,0075	-30,5250305250304
1,008	-20,7570207570207
1,0085	-6,10500610500608
1,009	8,54700854700852
1,0095	23,1990231990231
1,01	28,083028083028
1,0105	28,083028083028
1,011	37,8510378510377
1,0115	74,4810744810742
1,012	89,1330891330888
1,0125	94,0170940170937
1,013	79,3650793650791
1,0135	47,6190476190475
1,014	28,083028083028
1,0145	8,54700854700852
1,015	-6,10500610500608
1,0155	-10,989010989011
1,016	-15,8730158730158
1,0165	-15,8730158730158
1,017	-15,8730158730158
1,0175	-25,6410256410256
1,018	-30,5250305250304
1,0185	-35,4090354090353
1,019	-45,177045177045
1,0195	-40,2930402930402
1,02	-35,4090354090353
1,0205	-30,5250305250304
1,021	-10,989010989011
1,0215	-1,22100122100122
1,022	8,54700854700852
1,0225	18,3150183150183
1,023	42,7350427350426
1,0235	59,8290598290596
1,024	54,9450549450548
1,0245	32,9670329670329
1,025	8,54700854700852
1,0255	-1,22100122100122
1,026	-6,10500610500608
1,0265	-6,10500610500608
1,027	-10,989010989011
1,0275	-10,989010989011
1,028	-6,10500610500608
1,0285	3,66300366300365
1,029	3,66300366300365
1,0295	-1,22100122100122
1,03	-10,989010989011
1,0305	-20,7570207570207
1,031	-25,6410256410256
1,0315	-20,7570207570207
1,032	-10,989010989011
1,0325	-6,10500610500608
1,033	3,66300366300365
1,0335	8,54700854700852
1,034	18,3150183150183
1,0345	13,4310134310134
1,035	13,4310134310134
1,0355	8,54700854700852
1,036	3,66300366300365
1,0365	3,66300366300365
1,037	3,66300366300365
1,0375	3,66300366300365
1,038	3,66300366300365
1,0385	3,66300366300365
1,039	-1,22100122100122
1,0395	3,66300366300365
1,04	8,54700854700852
1,0405	8,54700854700852
1,041	8,54700854700852
1,0415	8,54700854700852
1,042	3,66300366300365
1,0425	-1,22100122100122
1,043	3,66300366300365
1,0435	3,66300366300365
1,044	-10,989010989011
1,0445	-15,8730158730158
1,045	-15,8730158730158
1,0455	-15,8730158730158
1,046	-10,989010989011
1,0465	3,66300366300365
1,047	18,3150183150183
1,0475	32,9670329670329
1,048	47,6190476190475
1,0485	64,7130647130645
1,049	84,249084249084
1,0495	79,3650793650791
1,05	59,8290598290596
1,0505	32,9670329670329
1,051	3,66300366300365
1,0515	-20,7570207570207
1,052	-45,177045177045
1,0525	-52,5030525030523
1,053	-45,177045177045
1,0535	-25,6410256410256
1,054	-15,8730158730158
1,0545	-10,989010989011
1,055	-6,10500610500608
1,0555	-1,22100122100122
1,056	8,54700854700852
1,0565	8,54700854700852
1,057	8,54700854700852
1,0575	18,3150183150183
1,058	28,083028083028
1,0585	32,9670329670329
1,059	28,083028083028
1,0595	18,3150183150183
1,06	8,54700854700852
1,0605	3,66300366300365
1,061	-6,10500610500608
1,0615	-10,989010989011
1,062	-10,989010989011
1,0625	-15,8730158730158
1,063	-10,989010989011
1,0635	3,66300366300365
1,064	3,66300366300365
1,0645	-6,10500610500608
1,065	-10,989010989011
1,0655	-6,10500610500608
1,066	-1,22100122100122
1,0665	13,4310134310134
1,067	28,083028083028
1,0675	32,9670329670329
1,068	18,3150183150183
1,0685	-6,10500610500608
1,069	-25,6410256410256
1,0695	-35,4090354090353
1,07	-30,5250305250304
1,0705	-25,6410256410256
1,071	-10,989010989011
1,0715	3,66300366300365
1,072	13,4310134310134
1,0725	23,1990231990231
1,073	28,083028083028
1,0735	28,083028083028
1,074	18,3150183150183
1,0745	8,54700854700852
1,075	8,54700854700852
1,0755	8,54700854700852
1,076	18,3150183150183
1,0765	18,3150183150183
1,077	18,3150183150183
1,0775	13,4310134310134
1,078	13,4310134310134
1,0785	8,54700854700852
1,079	3,66300366300365
1,0795	3,66300366300365
1,08	-1,22100122100122
1,0805	-10,989010989011
1,081	-10,989010989011
1,0815	3,66300366300365
1,082	8,54700854700852
1,0825	13,4310134310134
1,083	18,3150183150183
1,0835	18,3150183150183
1,084	13,4310134310134
1,0845	8,54700854700852
1,085	8,54700854700852
1,0855	8,54700854700852
1,086	8,54700854700852
1,0865	8,54700854700852
1,087	8,54700854700852
1,0875	13,4310134310134
1,088	8,54700854700852
1,0885	8,54700854700852
1,089	3,66300366300365
1,0895	3,66300366300365
1,09	-10,989010989011
1,0905	-15,8730158730158
1,091	-20,7570207570207
1,0915	-15,8730158730158
1,092	-6,10500610500608
1,0925	-6,10500610500608
1,093	-1,22100122100122
1,0935	3,66300366300365
1,094	-1,22100122100122
1,0945	-10,989010989011
1,095	-10,989010989011
1,0955	-15,8730158730158
1,096	-15,8730158730158
1,0965	-20,7570207570207
1,097	-30,5250305250304
1,0975	-35,4090354090353
1,098	-30,5250305250304
1,0985	-20,7570207570207
1,099	-10,989010989011
1,0995	3,66300366300365
1,1	23,1990231990231
1,1005	47,6190476190475
1,101	79,3650793650791
1,1015	103,785103785103
1,102	108,669108669108
1,1025	98,9010989010986
1,103	103,785103785103
1,1035	108,669108669108
1,104	98,9010989010986
1,1045	84,249084249084
1,105	69,5970695970694
1,1055	37,8510378510377
1,106	8,54700854700852
1,1065	-15,8730158730158
1,107	-52,5030525030523
1,1075	-76,9230769230767
1,108	-96,4590964590961
1,1085	-101,343101343101
1,109	-91,5750915750913
1,1095	-76,9230769230767
1,11	-52,5030525030523
1,1105	-30,5250305250304
1,111	-15,8730158730158
1,1115	-6,10500610500608
1,112	3,66300366300365
1,1125	3,66300366300365
1,113	8,54700854700852
1,1135	3,66300366300365
1,114	3,66300366300365
1,1145	3,66300366300365
1,115	3,66300366300365
1,1155	8,54700854700852
1,116	3,66300366300365
1,1165	-1,22100122100122
1,117	-6,10500610500608
1,1175	-6,10500610500608
1,118	-10,989010989011
1,1185	-10,989010989011
1,119	-10,989010989011
1,1195	-6,10500610500608
1,12	-1,22100122100122
1,1205	8,54700854700852
1,121	32,9670329670329
1,1215	59,8290598290596
1,122	64,7130647130645
1,1225	47,6190476190475
1,123	37,8510378510377
1,1235	23,1990231990231
1,124	13,4310134310134
1,1245	8,54700854700852
1,125	-1,22100122100122
1,1255	-1,22100122100122
1,126	-10,989010989011
1,1265	-10,989010989011
1,127	-10,989010989011
1,1275	-10,989010989011
1,128	-10,989010989011
1,1285	-10,989010989011
1,129	-10,989010989011
1,1295	-6,10500610500608
1,13	-1,22100122100122
1,1305	3,66300366300365
1,131	8,54700854700852
1,1315	8,54700854700852
1,132	8,54700854700852
1,1325	13,4310134310134
1,133	8,54700854700852
1,1335	8,54700854700852
1,134	8,54700854700852
1,1345	23,1990231990231
1,135	28,083028083028
1,1355	28,083028083028
1,136	32,9670329670329
1,1365	37,8510378510377
1,137	28,083028083028
1,1375	23,1990231990231
1,138	18,3150183150183
1,1385	3,66300366300365
1,139	-6,10500610500608
1,1395	-15,8730158730158
1,14	-30,5250305250304
1,1405	-40,2930402930402
1,141	-30,5250305250304
1,1415	-20,7570207570207
1,142	-15,8730158730158
1,1425	-25,6410256410256
1,143	-30,5250305250304
1,1435	-20,7570207570207
1,144	-10,989010989011
1,1445	-10,989010989011
1,145	-15,8730158730158
1,1455	-40,2930402930402
1,146	-52,5030525030523
1,1465	-30,5250305250304
1,147	-1,22100122100122
1,1475	28,083028083028
1,148	32,9670329670329
1,1485	32,9670329670329
1,149	37,8510378510377
1,1495	32,9670329670329
1,15	23,1990231990231
1,1505	23,1990231990231
1,151	47,6190476190475
1,1515	64,7130647130645
1,152	64,7130647130645
1,1525	47,6190476190475
1,153	23,1990231990231
1,1535	18,3150183150183
1,154	8,54700854700852
1,1545	13,4310134310134
1,155	32,9670329670329
1,1555	54,9450549450548
1,156	64,7130647130645
1,1565	42,7350427350426
1,157	23,1990231990231
1,1575	8,54700854700852
1,158	-10,989010989011
1,1585	-15,8730158730158
1,159	-10,989010989011
1,1595	-10,989010989011
1,16	-10,989010989011
1,1605	-6,10500610500608
1,161	3,66300366300365
1,1615	13,4310134310134
1,162	18,3150183150183
1,1625	37,8510378510377
1,163	37,8510378510377
1,1635	18,3150183150183
1,164	-1,22100122100122
1,1645	-10,989010989011
1,165	-10,989010989011
1,1655	-15,8730158730158
1,166	-15,8730158730158
1,1665	-20,7570207570207
1,167	-20,7570207570207
1,1675	-15,8730158730158
1,168	-10,989010989011
1,1685	-6,10500610500608
1,169	-6,10500610500608
1,1695	-6,10500610500608
1,17	-6,10500610500608
1,1705	-1,22100122100122
1,171	3,66300366300365
1,1715	3,66300366300365
1,172	-10,989010989011
1,1725	-20,7570207570207
1,173	-25,6410256410256
1,1735	-30,5250305250304
1,174	-40,2930402930402
1,1745	-45,177045177045
1,175	-40,2930402930402
1,1755	-40,2930402930402
1,176	-30,5250305250304
1,1765	-10,989010989011
1,177	8,54700854700852
1,1775	28,083028083028
1,178	59,8290598290596
1,1785	84,249084249084
1,179	89,1330891330888
1,1795	74,4810744810742
1,18	69,5970695970694
1,1805	64,7130647130645
1,181	47,6190476190475
1,1815	32,9670329670329
1,182	18,3150183150183
1,1825	3,66300366300365
1,183	-10,989010989011
1,1835	-25,6410256410256
1,184	-35,4090354090353
1,1845	-52,5030525030523
1,185	-52,5030525030523
1,1855	-45,177045177045
1,186	-30,5250305250304
1,1865	-10,989010989011
1,187	-1,22100122100122
1,1875	3,66300366300365
1,188	3,66300366300365
1,1885	-1,22100122100122
1,189	3,66300366300365
1,1895	8,54700854700852
1,19	8,54700854700852
1,1905	13,4310134310134
1,191	13,4310134310134
1,1915	8,54700854700852
1,192	13,4310134310134
1,1925	18,3150183150183
1,193	13,4310134310134
1,1935	13,4310134310134
1,194	3,66300366300365
1,1945	-1,22100122100122
1,195	13,4310134310134
1,1955	23,1990231990231
1,196	28,083028083028
1,1965	23,1990231990231
1,197	8,54700854700852
1,1975	3,66300366300365
1,198	3,66300366300365
1,1985	3,66300366300365
1,199	3,66300366300365
1,1995	3,66300366300365
1,2	8,54700854700852
1,2005	8,54700854700852
1,201	8,54700854700852
1,2015	3,66300366300365
1,202	-1,22100122100122
1,2025	-1,22100122100122
1,203	3,66300366300365
1,2035	8,54700854700852
1,204	13,4310134310134
1,2045	18,3150183150183
1,205	23,1990231990231
1,2055	28,083028083028
1,206	18,3150183150183
1,2065	13,4310134310134
1,207	13,4310134310134
1,2075	8,54700854700852
1,208	8,54700854700852
1,2085	8,54700854700852
1,209	3,66300366300365
1,2095	-6,10500610500608
1,21	-10,989010989011
1,2105	-6,10500610500608
1,211	-6,10500610500608
1,2115	-10,989010989011
1,212	-10,989010989011
1,2125	-25,6410256410256
1,213	-35,4090354090353
1,2135	-40,2930402930402
1,214	-30,5250305250304
1,2145	-20,7570207570207
1,215	-10,989010989011
1,2155	-1,22100122100122
1,216	3,66300366300365
1,2165	-1,22100122100122
1,217	-6,10500610500608
1,2175	-6,10500610500608
1,218	-6,10500610500608
1,2185	-1,22100122100122
1,219	-6,10500610500608
1,2195	-6,10500610500608
1,22	-1,22100122100122
1,2205	3,66300366300365
1,221	18,3150183150183
1,2215	28,083028083028
1,222	42,7350427350426
1,2225	54,9450549450548
1,223	69,5970695970694
1,2235	84,249084249084
1,224	89,1330891330888
1,2245	84,249084249084
1,225	59,8290598290596
1,2255	32,9670329670329
1,226	18,3150183150183
1,2265	3,66300366300365
1,227	-10,989010989011
1,2275	-10,989010989011
1,228	-6,10500610500608
1,2285	-10,989010989011
1,229	-10,989010989011
1,2295	-10,989010989011
1,23	-10,989010989011
1,2305	-10,989010989011
1,231	-6,10500610500608
1,2315	-6,10500610500608
1,232	-10,989010989011
1,2325	-10,989010989011
1,233	-20,7570207570207
1,2335	-20,7570207570207
1,234	-10,989010989011
1,2345	-10,989010989011
1,235	-10,989010989011
1,2355	-10,989010989011
1,236	-10,989010989011
1,2365	-10,989010989011
1,237	-10,989010989011
1,2375	-10,989010989011
1,238	-10,989010989011
1,2385	3,66300366300365
1,239	18,3150183150183
1,2395	28,083028083028
1,24	18,3150183150183
1,2405	3,66300366300365
1,241	-10,989010989011
1,2415	-6,10500610500608
1,242	8,54700854700852
1,2425	42,7350427350426
1,243	59,8290598290596
1,2435	42,7350427350426
1,244	13,4310134310134
1,2445	-10,989010989011
1,245	-25,6410256410256
1,2455	-30,5250305250304
1,246	-40,2930402930402
1,2465	-45,177045177045
1,247	-45,177045177045
1,2475	-40,2930402930402
1,248	-30,5250305250304
1,2485	-25,6410256410256
1,249	-10,989010989011
1,2495	3,66300366300365
1,25	18,3150183150183
1,2505	28,083028083028
1,251	28,083028083028
1,2515	32,9670329670329
1,252	47,6190476190475
1,2525	64,7130647130645
1,253	64,7130647130645
1,2535	59,8290598290596
1,254	47,6190476190475
1,2545	42,7350427350426
1,255	28,083028083028
1,2555	23,1990231990231
1,256	13,4310134310134
1,2565	18,3150183150183
1,257	13,4310134310134
1,2575	8,54700854700852
1,258	3,66300366300365
1,2585	-1,22100122100122
1,259	-6,10500610500608
1,2595	-10,989010989011
1,26	-10,989010989011
1,2605	-10,989010989011
1,261	-10,989010989011
1,2615	-10,989010989011
1,262	-10,989010989011
1,2625	-6,10500610500608
1,263	-6,10500610500608
1,2635	8,54700854700852
1,264	28,083028083028
1,2645	37,8510378510377
1,265	32,9670329670329
1,2655	23,1990231990231
1,266	8,54700854700852
1,2665	-1,22100122100122
1,267	-10,989010989011
1,2675	-30,5250305250304
1,268	-40,2930402930402
1,2685	-52,5030525030523
1,269	-57,3870573870572
1,2695	-52,5030525030523
1,27	-35,4090354090353
1,2705	-15,8730158730158
1,271	3,66300366300365
1,2715	28,083028083028
1,272	32,9670329670329
1,2725	23,1990231990231
1,273	18,3150183150183
1,2735	13,4310134310134
1,274	18,3150183150183
1,2745	23,1990231990231
1,275	28,083028083028
1,2755	32,9670329670329
1,276	28,083028083028
1,2765	23,1990231990231
1,277	23,1990231990231
1,2775	13,4310134310134
1,278	3,66300366300365
1,2785	-1,22100122100122
1,279	-6,10500610500608
1,2795	-15,8730158730158
1,28	-35,4090354090353
1,2805	-45,177045177045
1,281	-35,4090354090353
1,2815	-25,6410256410256
1,282	-10,989010989011
1,2825	-6,10500610500608
1,283	3,66300366300365
1,2835	18,3150183150183
1,284	23,1990231990231
1,2845	23,1990231990231
1,285	28,083028083028
1,2855	42,7350427350426
1,286	59,8290598290596
1,2865	42,7350427350426
1,287	8,54700854700852
1,2875	-20,7570207570207
1,288	-40,2930402930402
1,2885	-40,2930402930402
1,289	-20,7570207570207
1,2895	-15,8730158730158
1,29	-10,989010989011
1,2905	-1,22100122100122
1,291	13,4310134310134
1,2915	23,1990231990231
1,292	42,7350427350426
1,2925	74,4810744810742
1,293	98,9010989010986
1,2935	108,669108669108
1,294	84,249084249084
1,2945	59,8290598290596
1,295	37,8510378510377
1,2955	18,3150183150183
1,296	-1,22100122100122
1,2965	-15,8730158730158
1,297	-25,6410256410256
1,2975	-30,5250305250304
1,298	-25,6410256410256
1,2985	-20,7570207570207
1,299	-10,989010989011
1,2995	-6,10500610500608
1,3	3,66300366300365
1,3005	8,54700854700852
1,301	3,66300366300365
1,3015	3,66300366300365
1,302	8,54700854700852
1,3025	3,66300366300365
1,303	-6,10500610500608
1,3035	-20,7570207570207
1,304	-35,4090354090353
1,3045	-52,5030525030523
1,305	-57,3870573870572
1,3055	-45,177045177045
1,306	-25,6410256410256
1,3065	-20,7570207570207
1,307	-20,7570207570207
1,3075	-10,989010989011
1,308	3,66300366300365
1,3085	3,66300366300365
1,309	23,1990231990231
1,3095	37,8510378510377
1,31	47,6190476190475
1,3105	47,6190476190475
1,311	37,8510378510377
1,3115	32,9670329670329
1,312	28,083028083028
1,3125	23,1990231990231
1,313	18,3150183150183
1,3135	18,3150183150183
1,314	13,4310134310134
1,3145	-10,989010989011
1,315	-40,2930402930402
1,3155	-62,2710622710621
1,316	-67,1550671550669
1,3165	-57,3870573870572
1,317	-35,4090354090353
1,3175	-15,8730158730158
1,318	3,66300366300365
1,3185	28,083028083028
1,319	37,8510378510377
1,3195	37,8510378510377
1,32	32,9670329670329
1,3205	37,8510378510377
1,321	54,9450549450548
1,3215	59,8290598290596
1,322	59,8290598290596
1,3225	59,8290598290596
1,323	59,8290598290596
1,3235	47,6190476190475
1,324	28,083028083028
1,3245	13,4310134310134
1,325	-1,22100122100122
1,3255	-10,989010989011
1,326	-20,7570207570207
1,3265	-25,6410256410256
1,327	-30,5250305250304
1,3275	-30,5250305250304
1,328	-30,5250305250304
1,3285	-20,7570207570207
1,329	-15,8730158730158
1,3295	-10,989010989011
1,33	-10,989010989011
1,3305	3,66300366300365
1,331	23,1990231990231
1,3315	32,9670329670329
1,332	28,083028083028
1,3325	18,3150183150183
1,333	8,54700854700852
1,3335	8,54700854700852
1,334	8,54700854700852
1,3345	3,66300366300365
1,335	-6,10500610500608
1,3355	-10,989010989011
1,336	-10,989010989011
1,3365	-6,10500610500608
1,337	-10,989010989011
1,3375	-10,989010989011
1,338	-10,989010989011
1,3385	-6,10500610500608
1,339	-10,989010989011
1,3395	-6,10500610500608
1,34	-1,22100122100122
1,3405	3,66300366300365
1,341	3,66300366300365
1,3415	8,54700854700852
1,342	8,54700854700852
1,3425	18,3150183150183
1,343	28,083028083028
1,3435	28,083028083028
1,344	13,4310134310134
1,3445	-10,989010989011
1,345	-20,7570207570207
1,3455	-25,6410256410256
1,346	-25,6410256410256
1,3465	-20,7570207570207
1,347	-30,5250305250304
1,3475	-30,5250305250304
1,348	-45,177045177045
1,3485	-45,177045177045
1,349	-30,5250305250304
1,3495	-10,989010989011
1,35	18,3150183150183
1,3505	64,7130647130645
1,351	113,553113553113
1,3515	142,857142857143
1,352	155,067155067155
1,3525	128,205128205129
1,353	84,249084249084
1,3535	47,6190476190475
1,354	18,3150183150183
1,3545	-1,22100122100122
1,355	-10,989010989011
1,3555	-20,7570207570207
1,356	-25,6410256410256
1,3565	-30,5250305250304
1,357	-40,2930402930402
1,3575	-52,5030525030523
1,358	-30,5250305250304
1,3585	3,66300366300365
1,359	32,9670329670329
1,3595	42,7350427350426
1,36	28,083028083028
1,3605	13,4310134310134
1,361	-1,22100122100122
1,3615	-10,989010989011
1,362	-30,5250305250304
1,3625	-57,3870573870572
1,363	-72,0390720390718
1,3635	-67,1550671550669
1,364	-52,5030525030523
1,3645	-30,5250305250304
1,365	-10,989010989011
1,3655	-6,10500610500608
1,366	-10,989010989011
1,3665	-15,8730158730158
1,367	-15,8730158730158
1,3675	-10,989010989011
1,368	3,66300366300365
1,3685	23,1990231990231
1,369	37,8510378510377
1,3695	42,7350427350426
1,37	32,9670329670329
1,3705	18,3150183150183
1,371	8,54700854700852
1,3715	8,54700854700852
1,372	8,54700854700852
1,3725	18,3150183150183
1,373	18,3150183150183
1,3735	13,4310134310134
1,374	8,54700854700852
1,3745	8,54700854700852
1,375	3,66300366300365
1,3755	3,66300366300365
1,376	8,54700854700852
1,3765	13,4310134310134
1,377	23,1990231990231
1,3775	42,7350427350426
1,378	69,5970695970694
1,3785	69,5970695970694
1,379	59,8290598290596
1,3795	42,7350427350426
1,38	23,1990231990231
1,3805	3,66300366300365
1,381	-10,989010989011
1,3815	-10,989010989011
1,382	-10,989010989011
1,3825	-15,8730158730158
1,383	-15,8730158730158
1,3835	-10,989010989011
1,384	-10,989010989011
1,3845	-1,22100122100122
1,385	3,66300366300365
1,3855	8,54700854700852
1,386	8,54700854700852
1,3865	8,54700854700852
1,387	-1,22100122100122
1,3875	-6,10500610500608
1,388	-6,10500610500608
1,3885	-6,10500610500608
1,389	-1,22100122100122
1,3895	3,66300366300365
1,39	3,66300366300365
1,3905	3,66300366300365
1,391	-1,22100122100122
1,3915	-1,22100122100122
1,392	3,66300366300365
1,3925	-1,22100122100122
1,393	-6,10500610500608
1,3935	-6,10500610500608
1,394	-1,22100122100122
1,3945	-1,22100122100122
1,395	3,66300366300365
1,3955	3,66300366300365
1,396	8,54700854700852
1,3965	8,54700854700852
1,397	18,3150183150183
1,3975	18,3150183150183
1,398	13,4310134310134
1,3985	3,66300366300365
1,399	-6,10500610500608
1,3995	3,66300366300365
1,4	3,66300366300365
1,4005	-6,10500610500608
1,401	-10,989010989011
1,4015	-20,7570207570207
1,402	-25,6410256410256
1,4025	-20,7570207570207
1,403	-20,7570207570207
1,4035	-15,8730158730158
1,404	-15,8730158730158
1,4045	-20,7570207570207
1,405	-15,8730158730158
1,4055	-10,989010989011
1,406	3,66300366300365
1,4065	28,083028083028
1,407	64,7130647130645
1,4075	108,669108669108
1,408	123,321123321123
1,4085	113,553113553113
1,409	84,249084249084
1,4095	54,9450549450548
1,41	23,1990231990231
1,4105	3,66300366300365
1,411	-10,989010989011
1,4115	-20,7570207570207
1,412	-20,7570207570207
1,4125	-25,6410256410256
1,413	-20,7570207570207
1,4135	-20,7570207570207
1,414	-15,8730158730158
1,4145	-10,989010989011
1,415	-10,989010989011
1,4155	-1,22100122100122
1,416	-1,22100122100122
1,4165	-10,989010989011
1,417	-15,8730158730158
1,4175	-15,8730158730158
1,418	-10,989010989011
1,4185	-10,989010989011
1,419	-10,989010989011
1,4195	-15,8730158730158
1,42	-15,8730158730158
1,4205	-10,989010989011
1,421	-10,989010989011
1,4215	-10,989010989011
1,422	-6,10500610500608
1,4225	-1,22100122100122
1,423	13,4310134310134
1,4235	42,7350427350426
1,424	84,249084249084
1,4245	108,669108669108
1,425	94,0170940170937
1,4255	69,5970695970694
1,426	47,6190476190475
1,4265	18,3150183150183
1,427	-6,10500610500608
1,4275	-10,989010989011
1,428	-25,6410256410256
1,4285	-30,5250305250304
1,429	-40,2930402930402
1,4295	-45,177045177045
1,43	-45,177045177045
1,4305	-45,177045177045
1,431	-35,4090354090353
1,4315	-30,5250305250304
1,432	-15,8730158730158
1,4325	-6,10500610500608
1,433	3,66300366300365
1,4335	-10,989010989011
1,434	-10,989010989011
1,4345	-1,22100122100122
1,435	13,4310134310134
1,4355	23,1990231990231
1,436	28,083028083028
1,4365	28,083028083028
1,437	23,1990231990231
1,4375	18,3150183150183
1,438	13,4310134310134
1,4385	13,4310134310134
1,439	8,54700854700852
1,4395	8,54700854700852
1,44	13,4310134310134
1,4405	13,4310134310134
1,441	18,3150183150183
1,4415	23,1990231990231
1,442	28,083028083028
1,4425	42,7350427350426
1,443	47,6190476190475
1,4435	37,8510378510377
1,444	23,1990231990231
1,4445	8,54700854700852
1,445	-10,989010989011
1,4455	-30,5250305250304
1,446	-35,4090354090353
1,4465	-30,5250305250304
1,447	-30,5250305250304
1,4475	-25,6410256410256
1,448	-10,989010989011
1,4485	3,66300366300365
1,449	3,66300366300365
1,4495	3,66300366300365
1,45	3,66300366300365
1,4505	13,4310134310134
1,451	13,4310134310134
1,4515	18,3150183150183
1,452	18,3150183150183
1,4525	23,1990231990231
1,453	32,9670329670329
1,4535	28,083028083028
1,454	18,3150183150183
1,4545	-6,10500610500608
1,455	-30,5250305250304
1,4555	-52,5030525030523
1,456	-45,177045177045
1,4565	-30,5250305250304
1,457	-10,989010989011
1,4575	-6,10500610500608
1,458	-6,10500610500608
1,4585	-6,10500610500608
1,459	-1,22100122100122
1,4595	8,54700854700852
1,46	18,3150183150183
1,4605	18,3150183150183
1,461	13,4310134310134
1,4615	23,1990231990231
1,462	47,6190476190475
1,4625	59,8290598290596
1,463	64,7130647130645
1,4635	69,5970695970694
1,464	64,7130647130645
1,4645	47,6190476190475
1,465	23,1990231990231
1,4655	3,66300366300365
1,466	-6,10500610500608
1,4665	-6,10500610500608
1,467	-1,22100122100122
1,4675	-1,22100122100122
1,468	-6,10500610500608
1,4685	-6,10500610500608
1,469	-10,989010989011
1,4695	-10,989010989011
1,47	-6,10500610500608
1,4705	-6,10500610500608
1,471	-6,10500610500608
1,4715	-6,10500610500608
1,472	-6,10500610500608
1,4725	-6,10500610500608
1,473	-6,10500610500608
1,4735	-1,22100122100122
1,474	3,66300366300365
1,4745	3,66300366300365
1,475	-1,22100122100122
1,4755	-6,10500610500608
1,476	-6,10500610500608
1,4765	-1,22100122100122
1,477	3,66300366300365
1,4775	3,66300366300365
1,478	3,66300366300365
1,4785	-6,10500610500608
1,479	-10,989010989011
1,4795	-10,989010989011
1,48	-10,989010989011
1,4805	-10,989010989011
1,481	-6,10500610500608
1,4815	-1,22100122100122
1,482	3,66300366300365
1,4825	8,54700854700852
1,483	8,54700854700852
1,4835	18,3150183150183
1,484	28,083028083028
1,4845	37,8510378510377
1,485	28,083028083028
1,4855	13,4310134310134
1,486	-1,22100122100122
1,4865	-10,989010989011
1,487	-20,7570207570207
1,4875	-35,4090354090353
1,488	-35,4090354090353
1,4885	-35,4090354090353
1,489	-45,177045177045
1,4895	-52,5030525030523
1,49	-30,5250305250304
1,4905	-6,10500610500608
1,491	23,1990231990231
1,4915	69,5970695970694
1,492	103,785103785103
1,4925	123,321123321123
1,493	108,669108669108
1,4935	74,4810744810742
1,494	42,7350427350426
1,4945	28,083028083028
1,495	28,083028083028
1,4955	28,083028083028
1,496	13,4310134310134
1,4965	-6,10500610500608
1,497	-25,6410256410256
1,4975	-40,2930402930402
1,498	-45,177045177045
1,4985	-40,2930402930402
1,499	-45,177045177045
1,4995	-52,5030525030523
1,5	-52,5030525030523
1,5005	-35,4090354090353
1,501	-15,8730158730158
1,5015	3,66300366300365
1,502	13,4310134310134
1,5025	18,3150183150183
1,503	13,4310134310134
1,5035	13,4310134310134
1,504	8,54700854700852
1,5045	8,54700854700852
1,505	8,54700854700852
1,5055	13,4310134310134
1,506	8,54700854700852
1,5065	8,54700854700852
1,507	8,54700854700852
1,5075	8,54700854700852
1,508	18,3150183150183
1,5085	37,8510378510377
1,509	42,7350427350426
1,5095	32,9670329670329
1,51	13,4310134310134
1,5105	-6,10500610500608
1,511	-10,989010989011
1,5115	-10,989010989011
1,512	-10,989010989011
1,5125	-15,8730158730158
1,513	-15,8730158730158
1,5135	-20,7570207570207
1,514	-20,7570207570207
1,5145	-10,989010989011
1,515	13,4310134310134
1,5155	42,7350427350426
1,516	47,6190476190475
1,5165	32,9670329670329
1,517	28,083028083028
1,5175	32,9670329670329
1,518	32,9670329670329
1,5185	28,083028083028
1,519	18,3150183150183
1,5195	3,66300366300365
1,52	-6,10500610500608
1,5205	-6,10500610500608
1,521	-6,10500610500608
1,5215	-6,10500610500608
1,522	-1,22100122100122
1,5225	-6,10500610500608
1,523	-10,989010989011
1,5235	-10,989010989011
1,524	-1,22100122100122
1,5245	8,54700854700852
1,525	13,4310134310134
1,5255	8,54700854700852
1,526	3,66300366300365
1,5265	-1,22100122100122
1,527	3,66300366300365
1,5275	-1,22100122100122
1,528	3,66300366300365
1,5285	3,66300366300365
1,529	-1,22100122100122
1,5295	-1,22100122100122
1,53	-1,22100122100122
1,5305	-1,22100122100122
1,531	-6,10500610500608
1,5315	-1,22100122100122
1,532	3,66300366300365
1,5325	18,3150183150183
1,533	18,3150183150183
1,5335	18,3150183150183
1,534	8,54700854700852
1,5345	-1,22100122100122
1,535	-10,989010989011
1,5355	-15,8730158730158
1,536	-30,5250305250304
1,5365	-35,4090354090353
1,537	-40,2930402930402
1,5375	-40,2930402930402
1,538	-35,4090354090353
1,5385	-10,989010989011
1,539	28,083028083028
1,5395	47,6190476190475
1,54	64,7130647130645
1,5405	74,4810744810742
1,541	69,5970695970694
1,5415	47,6190476190475
1,542	28,083028083028
1,5425	18,3150183150183
1,543	3,66300366300365
1,5435	-6,10500610500608
1,544	-10,989010989011
1,5445	-10,989010989011
1,545	3,66300366300365
1,5455	8,54700854700852
1,546	8,54700854700852
1,5465	3,66300366300365
1,547	-1,22100122100122
1,5475	-1,22100122100122
1,548	-1,22100122100122
1,5485	3,66300366300365
1,549	8,54700854700852
1,5495	13,4310134310134
1,55	8,54700854700852
1,5505	-1,22100122100122
1,551	-10,989010989011
1,5515	-10,989010989011
1,552	-10,989010989011
1,5525	-10,989010989011
1,553	-10,989010989011
1,5535	8,54700854700852
1,554	32,9670329670329
1,5545	32,9670329670329
1,555	23,1990231990231
1,5555	8,54700854700852
1,556	-1,22100122100122
1,5565	-10,989010989011
1,557	-15,8730158730158
1,5575	-20,7570207570207
1,558	-40,2930402930402
1,5585	-52,5030525030523
1,559	-62,2710622710621
1,5595	-72,0390720390718
1,56	-62,2710622710621
1,5605	-25,6410256410256
1,561	28,083028083028
1,5615	79,3650793650791
1,562	113,553113553113
1,5625	113,553113553113
1,563	94,0170940170937
1,5635	64,7130647130645
1,564	32,9670329670329
1,5645	13,4310134310134
1,565	3,66300366300365
1,5655	-10,989010989011
1,566	-15,8730158730158
1,5665	-20,7570207570207
1,567	-10,989010989011
1,5675	8,54700854700852
1,568	23,1990231990231
1,5685	32,9670329670329
1,569	37,8510378510377
1,5695	28,083028083028
1,57	18,3150183150183
1,5705	-1,22100122100122
1,571	-20,7570207570207
1,5715	-35,4090354090353
1,572	-30,5250305250304
1,5725	-20,7570207570207
1,573	-25,6410256410256
1,5735	-40,2930402930402
1,574	-40,2930402930402
1,5745	-20,7570207570207
1,575	-6,10500610500608
1,5755	8,54700854700852
1,576	18,3150183150183
1,5765	23,1990231990231
1,577	32,9670329670329
1,5775	37,8510378510377
1,578	23,1990231990231
1,5785	18,3150183150183
1,579	13,4310134310134
1,5795	8,54700854700852
1,58	3,66300366300365
1,5805	3,66300366300365
1,581	8,54700854700852
1,5815	8,54700854700852
1,582	8,54700854700852
1,5825	3,66300366300365
1,583	3,66300366300365
1,5835	3,66300366300365
1,584	3,66300366300365
1,5845	-1,22100122100122
1,585	-6,10500610500608
1,5855	-6,10500610500608
1,586	-10,989010989011
1,5865	-10,989010989011
1,587	-20,7570207570207
1,5875	-20,7570207570207
1,588	-15,8730158730158
1,5885	-10,989010989011
1,589	-1,22100122100122
1,5895	13,4310134310134
1,59	28,083028083028
1,5905	54,9450549450548
1,591	69,5970695970694
1,5915	69,5970695970694
1,592	54,9450549450548
1,5925	37,8510378510377
1,593	28,083028083028
1,5935	18,3150183150183
1,594	8,54700854700852
1,5945	-1,22100122100122
1,595	-6,10500610500608
1,5955	-6,10500610500608
1,596	-6,10500610500608
1,5965	-10,989010989011
1,597	-15,8730158730158
1,5975	-20,7570207570207
1,598	-25,6410256410256
1,5985	-25,6410256410256
1,599	-20,7570207570207
1,5995	-10,989010989011
1,6	-6,10500610500608
1,6005	8,54700854700852
1,601	8,54700854700852
1,6015	13,4310134310134
1,602	3,66300366300365
1,6025	-1,22100122100122
1,603	-1,22100122100122
1,6035	-1,22100122100122
1,604	8,54700854700852
1,6045	8,54700854700852
1,605	-6,10500610500608
1,6055	-10,989010989011
1,606	-20,7570207570207
1,6065	-25,6410256410256
1,607	-20,7570207570207
1,6075	-20,7570207570207
1,608	-15,8730158730158
1,6085	-10,989010989011
1,609	-6,10500610500608
1,6095	13,4310134310134
1,61	42,7350427350426
1,6105	69,5970695970694
1,611	79,3650793650791
1,6115	74,4810744810742
1,612	64,7130647130645
1,6125	47,6190476190475
1,613	32,9670329670329
1,6135	18,3150183150183
1,614	8,54700854700852
1,6145	3,66300366300365
1,615	3,66300366300365
1,6155	-6,10500610500608
1,616	-10,989010989011
1,6165	-15,8730158730158
1,617	-15,8730158730158
1,6175	-10,989010989011
1,618	8,54700854700852
1,6185	23,1990231990231
1,619	18,3150183150183
1,6195	8,54700854700852
1,62	-6,10500610500608
1,6205	-10,989010989011
1,621	-10,989010989011
1,6215	-6,10500610500608
1,622	-10,989010989011
1,6225	-30,5250305250304
1,623	-52,5030525030523
1,6235	-72,0390720390718
1,624	-67,1550671550669
1,6245	-57,3870573870572
1,625	-30,5250305250304
1,6255	-1,22100122100122
1,626	28,083028083028
1,6265	47,6190476190475
1,627	47,6190476190475
1,6275	32,9670329670329
1,628	42,7350427350426
1,6285	54,9450549450548
1,629	59,8290598290596
1,6295	54,9450549450548
1,63	54,9450549450548
1,6305	42,7350427350426
1,631	8,54700854700852
1,6315	-10,989010989011
1,632	-15,8730158730158
1,6325	-15,8730158730158
1,633	-10,989010989011
1,6335	-6,10500610500608
1,634	3,66300366300365
1,6345	13,4310134310134
1,635	32,9670329670329
1,6355	47,6190476190475
1,636	47,6190476190475
1,6365	32,9670329670329
1,637	23,1990231990231
1,6375	8,54700854700852
1,638	-6,10500610500608
1,6385	-15,8730158730158
1,639	-30,5250305250304
1,6395	-45,177045177045
1,64	-52,5030525030523
1,6405	-52,5030525030523
1,641	-40,2930402930402
1,6415	-25,6410256410256
1,642	-10,989010989011
1,6425	3,66300366300365
1,643	8,54700854700852
1,6435	3,66300366300365
1,644	-10,989010989011
1,6445	-20,7570207570207
1,645	-25,6410256410256
1,6455	-10,989010989011
1,646	-6,10500610500608
1,6465	-1,22100122100122
1,647	8,54700854700852
1,6475	23,1990231990231
1,648	42,7350427350426
1,6485	69,5970695970694
1,649	84,249084249084
1,6495	89,1330891330888
1,65	84,249084249084
1,6505	64,7130647130645
1,651	47,6190476190475
1,6515	28,083028083028
1,652	13,4310134310134
1,6525	3,66300366300365
1,653	-6,10500610500608
1,6535	-10,989010989011
1,654	-10,989010989011
1,6545	-10,989010989011
1,655	-10,989010989011
1,6555	-10,989010989011
1,656	-10,989010989011
1,6565	-20,7570207570207
1,657	-20,7570207570207
1,6575	-15,8730158730158
1,658	-10,989010989011
1,6585	3,66300366300365
1,659	23,1990231990231
1,6595	28,083028083028
1,66	28,083028083028
1,6605	23,1990231990231
1,661	13,4310134310134
1,6615	3,66300366300365
1,662	3,66300366300365
1,6625	-6,10500610500608
1,663	-10,989010989011
1,6635	-10,989010989011
1,664	-10,989010989011
1,6645	-10,989010989011
1,665	-1,22100122100122
1,6655	3,66300366300365
1,666	-6,10500610500608
1,6665	-6,10500610500608
1,667	-6,10500610500608
1,6675	-6,10500610500608
1,668	-6,10500610500608
1,6685	-10,989010989011
1,669	-10,989010989011
1,6695	-10,989010989011
1,67	-6,10500610500608
1,6705	-1,22100122100122
1,671	3,66300366300365
1,6715	8,54700854700852
1,672	18,3150183150183
1,6725	23,1990231990231
1,673	23,1990231990231
1,6735	18,3150183150183
1,674	3,66300366300365
1,6745	-10,989010989011
1,675	-15,8730158730158
1,6755	-15,8730158730158
1,676	-15,8730158730158
1,6765	-15,8730158730158
1,677	-10,989010989011
1,6775	-6,10500610500608
1,678	3,66300366300365
1,6785	8,54700854700852
1,679	13,4310134310134
1,6795	18,3150183150183
1,68	18,3150183150183
1,6805	18,3150183150183
1,681	18,3150183150183
1,6815	18,3150183150183
1,682	13,4310134310134
1,6825	8,54700854700852
1,683	8,54700854700852
1,6835	13,4310134310134
1,684	18,3150183150183
1,6845	18,3150183150183
1,685	18,3150183150183
1,6855	13,4310134310134
1,686	8,54700854700852
1,6865	8,54700854700852
1,687	13,4310134310134
1,6875	18,3150183150183
1,688	18,3150183150183
1,6885	18,3150183150183
1,689	8,54700854700852
1,6895	13,4310134310134
1,69	13,4310134310134
1,6905	13,4310134310134
1,691	18,3150183150183
1,6915	18,3150183150183
1,692	13,4310134310134
1,6925	8,54700854700852
1,693	13,4310134310134
1,6935	13,4310134310134
1,694	3,66300366300365
1,6945	-20,7570207570207
1,695	-45,177045177045
1,6955	-57,3870573870572
1,696	-57,3870573870572
1,6965	-57,3870573870572
1,697	-52,5030525030523
1,6975	-62,2710622710621
1,698	-72,0390720390718
1,6985	-67,1550671550669
1,699	-52,5030525030523
1,6995	-15,8730158730158
1,7	18,3150183150183
1,7005	54,9450549450548
1,701	108,669108669108
1,7015	137,973137973138
1,702	155,067155067155
1,7025	137,973137973138
1,703	98,9010989010986
1,7035	69,5970695970694
1,704	42,7350427350426
1,7045	18,3150183150183
1,705	-6,10500610500608
1,7055	-30,5250305250304
1,706	-52,5030525030523
1,7065	-52,5030525030523
1,707	-40,2930402930402
1,7075	-30,5250305250304
1,708	-30,5250305250304
1,7085	-20,7570207570207
1,709	-10,989010989011
1,7095	3,66300366300365
1,71	3,66300366300365
1,7105	8,54700854700852
1,711	23,1990231990231
1,7115	42,7350427350426
1,712	42,7350427350426
1,7125	47,6190476190475
1,713	47,6190476190475
1,7135	37,8510378510377
1,714	23,1990231990231
1,7145	3,66300366300365
1,715	-6,10500610500608
1,7155	-10,989010989011
1,716	-10,989010989011
1,7165	-15,8730158730158
1,717	-15,8730158730158
1,7175	-10,989010989011
1,718	-10,989010989011
1,7185	-10,989010989011
1,719	-15,8730158730158
1,7195	-10,989010989011
1,72	-1,22100122100122
1,7205	3,66300366300365
1,721	3,66300366300365
1,7215	-1,22100122100122
1,722	-1,22100122100122
1,7225	3,66300366300365
1,723	3,66300366300365
1,7235	-1,22100122100122
1,724	-6,10500610500608
1,7245	-10,989010989011
1,725	-15,8730158730158
1,7255	-20,7570207570207
1,726	-35,4090354090353
1,7265	-52,5030525030523
1,727	-40,2930402930402
1,7275	-20,7570207570207
1,728	8,54700854700852
1,7285	42,7350427350426
1,729	64,7130647130645
1,7295	69,5970695970694
1,73	54,9450549450548
1,7305	32,9670329670329
1,731	23,1990231990231
1,7315	8,54700854700852
1,732	3,66300366300365
1,7325	-1,22100122100122
1,733	3,66300366300365
1,7335	3,66300366300365
1,734	3,66300366300365
1,7345	3,66300366300365
1,735	3,66300366300365
1,7355	3,66300366300365
1,736	-6,10500610500608
1,7365	-10,989010989011
1,737	-15,8730158730158
1,7375	-20,7570207570207
1,738	-10,989010989011
1,7385	-10,989010989011
1,739	8,54700854700852
1,7395	23,1990231990231
1,74	47,6190476190475
1,7405	69,5970695970694
1,741	84,249084249084
1,7415	74,4810744810742
1,742	47,6190476190475
1,7425	8,54700854700852
1,743	-1,22100122100122
1,7435	8,54700854700852
1,744	8,54700854700852
1,7445	-15,8730158730158
1,745	-52,5030525030523
1,7455	-86,6910866910864
1,746	-101,343101343101
1,7465	-72,0390720390718
1,747	-30,5250305250304
1,7475	-1,22100122100122
1,748	18,3150183150183
1,7485	23,1990231990231
1,749	28,083028083028
1,7495	28,083028083028
1,75	23,1990231990231
1,7505	23,1990231990231
1,751	18,3150183150183
1,7515	13,4310134310134
1,752	8,54700854700852
1,7525	8,54700854700852
1,753	8,54700854700852
1,7535	8,54700854700852
1,754	8,54700854700852
1,7545	3,66300366300365
1,755	8,54700854700852
1,7555	13,4310134310134
1,756	13,4310134310134
1,7565	18,3150183150183
1,757	18,3150183150183
1,7575	18,3150183150183
1,758	8,54700854700852
1,7585	3,66300366300365
1,759	3,66300366300365
1,7595	3,66300366300365
1,76	3,66300366300365
1,7605	-1,22100122100122
1,761	-1,22100122100122
1,7615	3,66300366300365
1,762	3,66300366300365
1,7625	3,66300366300365
1,763	8,54700854700852
1,7635	8,54700854700852
1,764	13,4310134310134
1,7645	13,4310134310134
1,765	18,3150183150183
1,7655	23,1990231990231
1,766	23,1990231990231
1,7665	13,4310134310134
1,767	3,66300366300365
1,7675	3,66300366300365
1,768	3,66300366300365
1,7685	3,66300366300365
1,769	-1,22100122100122
1,7695	-1,22100122100122
1,77	-10,989010989011
1,7705	-25,6410256410256
1,771	-45,177045177045
1,7715	-52,5030525030523
1,772	-45,177045177045
1,7725	-30,5250305250304
1,773	-15,8730158730158
1,7735	-6,10500610500608
1,774	8,54700854700852
1,7745	18,3150183150183
1,775	28,083028083028
1,7755	37,8510378510377
1,776	42,7350427350426
1,7765	37,8510378510377
1,777	28,083028083028
1,7775	23,1990231990231
1,778	18,3150183150183
1,7785	8,54700854700852
1,779	-1,22100122100122
1,7795	-10,989010989011
1,78	-10,989010989011
1,7805	-10,989010989011
1,781	-10,989010989011
1,7815	-10,989010989011
1,782	-30,5250305250304
1,7825	-45,177045177045
1,783	-40,2930402930402
1,7835	-25,6410256410256
1,784	-10,989010989011
1,7845	3,66300366300365
1,785	28,083028083028
1,7855	64,7130647130645
1,786	89,1330891330888
1,7865	103,785103785103
1,787	89,1330891330888
1,7875	64,7130647130645
1,788	37,8510378510377
1,7885	32,9670329670329
1,789	42,7350427350426
1,7895	42,7350427350426
1,79	47,6190476190475
1,7905	37,8510378510377
1,791	8,54700854700852
1,7915	-6,10500610500608
1,792	-10,989010989011
1,7925	-10,989010989011
1,793	-10,989010989011
1,7935	-6,10500610500608
1,794	8,54700854700852
1,7945	8,54700854700852
1,795	3,66300366300365
1,7955	-10,989010989011
1,796	-35,4090354090353
1,7965	-52,5030525030523
1,797	-52,5030525030523
1,7975	-45,177045177045
1,798	-35,4090354090353
1,7985	-25,6410256410256
1,799	-20,7570207570207
1,7995	-25,6410256410256
1,8	-20,7570207570207
1,8005	-10,989010989011
1,801	-10,989010989011
1,8015	-10,989010989011
1,802	-6,10500610500608
1,8025	-6,10500610500608
1,803	3,66300366300365
1,8035	8,54700854700852
1,804	13,4310134310134
1,8045	8,54700854700852
1,805	13,4310134310134
1,8055	18,3150183150183
1,806	18,3150183150183
1,8065	13,4310134310134
1,807	8,54700854700852
1,8075	8,54700854700852
1,808	8,54700854700852
1,8085	8,54700854700852
1,809	23,1990231990231
1,8095	23,1990231990231
1,81	23,1990231990231
1,8105	13,4310134310134
1,811	-1,22100122100122
1,8115	-10,989010989011
1,812	-10,989010989011
1,8125	-10,989010989011
1,813	-10,989010989011
1,8135	-10,989010989011
1,814	-10,989010989011
1,8145	-10,989010989011
1,815	-10,989010989011
1,8155	-6,10500610500608
1,816	3,66300366300365
1,8165	8,54700854700852
1,817	13,4310134310134
1,8175	18,3150183150183
1,818	23,1990231990231
1,8185	28,083028083028
1,819	28,083028083028
1,8195	23,1990231990231
1,82	13,4310134310134
1,8205	-1,22100122100122
1,821	-10,989010989011
1,8215	-10,989010989011
1,822	-10,989010989011
1,8225	-6,10500610500608
1,823	8,54700854700852
1,8235	23,1990231990231
1,824	28,083028083028
1,8245	28,083028083028
1,825	28,083028083028
1,8255	23,1990231990231
1,826	23,1990231990231
1,8265	18,3150183150183
1,827	8,54700854700852
1,8275	3,66300366300365
1,828	3,66300366300365
1,8285	-10,989010989011
1,829	-10,989010989011
1,8295	-6,10500610500608
1,83	-1,22100122100122
1,8305	3,66300366300365
1,831	8,54700854700852
1,8315	8,54700854700852
1,832	8,54700854700852
1,8325	8,54700854700852
1,833	8,54700854700852
1,8335	3,66300366300365
1,834	-1,22100122100122
1,8345	-1,22100122100122
1,835	3,66300366300365
1,8355	3,66300366300365
1,836	3,66300366300365
1,8365	3,66300366300365
1,837	-1,22100122100122
1,8375	-1,22100122100122
1,838	3,66300366300365
1,8385	3,66300366300365
1,839	-1,22100122100122
1,8395	3,66300366300365
1,84	3,66300366300365
1,8405	8,54700854700852
1,841	8,54700854700852
1,8415	8,54700854700852
1,842	3,66300366300365
1,8425	3,66300366300365
1,843	-1,22100122100122
1,8435	-6,10500610500608
1,844	-10,989010989011
1,8445	-10,989010989011
1,845	-1,22100122100122
1,8455	3,66300366300365
1,846	18,3150183150183
1,8465	18,3150183150183
1,847	-1,22100122100122
1,8475	3,66300366300365
1,848	32,9670329670329
1,8485	64,7130647130645
1,849	69,5970695970694
1,8495	47,6190476190475
1,85	28,083028083028
1,8505	3,66300366300365
1,851	-15,8730158730158
1,8515	-30,5250305250304
1,852	-35,4090354090353
1,8525	-35,4090354090353
1,853	-30,5250305250304
1,8535	-25,6410256410256
1,854	-15,8730158730158
1,8545	-10,989010989011
1,855	-10,989010989011
1,8555	-10,989010989011
1,856	-10,989010989011
1,8565	-6,10500610500608
1,857	8,54700854700852
1,8575	28,083028083028
1,858	42,7350427350426
1,8585	47,6190476190475
1,859	32,9670329670329
1,8595	13,4310134310134
1,86	3,66300366300365
1,8605	-1,22100122100122
1,861	-6,10500610500608
1,8615	-1,22100122100122
1,862	3,66300366300365
1,8625	3,66300366300365
1,863	-1,22100122100122
1,8635	-20,7570207570207
1,864	-35,4090354090353
1,8645	-40,2930402930402
1,865	-35,4090354090353
1,8655	-30,5250305250304
1,866	-20,7570207570207
1,8665	-10,989010989011
1,867	3,66300366300365
1,8675	28,083028083028
1,868	59,8290598290596
1,8685	69,5970695970694
1,869	64,7130647130645
1,8695	69,5970695970694
1,87	74,4810744810742
1,8705	59,8290598290596
1,871	28,083028083028
1,8715	23,1990231990231
1,872	28,083028083028
1,8725	23,1990231990231
1,873	28,083028083028
1,8735	32,9670329670329
1,874	32,9670329670329
1,8745	28,083028083028
1,875	3,66300366300365
1,8755	-20,7570207570207
1,876	-52,5030525030523
1,8765	-62,2710622710621
1,877	-62,2710622710621
1,8775	-45,177045177045
1,878	-30,5250305250304
1,8785	-20,7570207570207
1,879	-10,989010989011
1,8795	3,66300366300365
1,88	13,4310134310134
1,8805	18,3150183150183
1,881	23,1990231990231
1,8815	18,3150183150183
1,882	13,4310134310134
1,8825	8,54700854700852
1,883	-1,22100122100122
1,8835	-10,989010989011
1,884	-25,6410256410256
1,8845	-30,5250305250304
1,885	-35,4090354090353
1,8855	-40,2930402930402
1,886	-30,5250305250304
1,8865	-10,989010989011
1,887	3,66300366300365
1,8875	23,1990231990231
1,888	28,083028083028
1,8885	32,9670329670329
1,889	32,9670329670329
1,8895	23,1990231990231
1,89	13,4310134310134
1,8905	3,66300366300365
1,891	-1,22100122100122
1,8915	3,66300366300365
1,892	8,54700854700852
1,8925	8,54700854700852
1,893	3,66300366300365
1,8935	3,66300366300365
1,894	8,54700854700852
1,8945	8,54700854700852
1,895	8,54700854700852
1,8955	8,54700854700852
1,896	3,66300366300365
1,8965	8,54700854700852
1,897	8,54700854700852
1,8975	8,54700854700852
1,898	8,54700854700852
1,8985	8,54700854700852
1,899	18,3150183150183
1,8995	18,3150183150183
1,9	18,3150183150183
1,9005	18,3150183150183
1,901	18,3150183150183
1,9015	13,4310134310134
1,902	8,54700854700852
1,9025	8,54700854700852
1,903	3,66300366300365
1,9035	8,54700854700852
1,904	18,3150183150183
1,9045	23,1990231990231
1,905	18,3150183150183
1,9055	8,54700854700852
1,906	3,66300366300365
1,9065	-1,22100122100122
1,907	-6,10500610500608
1,9075	-10,989010989011
1,908	-10,989010989011
1,9085	-10,989010989011
1,909	-6,10500610500608
1,9095	-6,10500610500608
1,91	-6,10500610500608
1,9105	-6,10500610500608
1,911	3,66300366300365
1,9115	8,54700854700852
1,912	8,54700854700852
1,9125	13,4310134310134
1,913	18,3150183150183
1,9135	28,083028083028
1,914	32,9670329670329
1,9145	32,9670329670329
1,915	28,083028083028
1,9155	18,3150183150183
1,916	8,54700854700852
1,9165	-6,10500610500608
1,917	-10,989010989011
1,9175	-10,989010989011
1,918	3,66300366300365
1,9185	8,54700854700852
1,919	18,3150183150183
1,9195	8,54700854700852
1,92	-10,989010989011
1,9205	-30,5250305250304
1,921	-40,2930402930402
1,9215	-45,177045177045
1,922	-52,5030525030523
1,9225	-62,2710622710621
1,923	-72,0390720390718
1,9235	-72,0390720390718
1,924	-52,5030525030523
1,9245	-35,4090354090353
1,925	-10,989010989011
1,9255	8,54700854700852
1,926	47,6190476190475
1,9265	98,9010989010986
1,927	118,437118437118
1,9275	133,089133089133
1,928	113,553113553113
1,9285	84,249084249084
1,929	54,9450549450548
1,9295	28,083028083028
1,93	18,3150183150183
1,9305	8,54700854700852
1,931	-1,22100122100122
1,9315	-6,10500610500608
1,932	-10,989010989011
1,9325	-10,989010989011
1,933	-10,989010989011
1,9335	-6,10500610500608
1,934	-1,22100122100122
1,9345	8,54700854700852
1,935	13,4310134310134
1,9355	8,54700854700852
1,936	3,66300366300365
1,9365	-6,10500610500608
1,937	-6,10500610500608
1,9375	-10,989010989011
1,938	-1,22100122100122
1,9385	18,3150183150183
1,939	18,3150183150183
1,9395	23,1990231990231
1,94	13,4310134310134
1,9405	3,66300366300365
1,941	-6,10500610500608
1,9415	-10,989010989011
1,942	-20,7570207570207
1,9425	-25,6410256410256
1,943	-35,4090354090353
1,9435	-45,177045177045
1,944	-52,5030525030523
1,9445	-52,5030525030523
1,945	-35,4090354090353
1,9455	-30,5250305250304
1,946	-30,5250305250304
1,9465	-30,5250305250304
1,947	-25,6410256410256
1,9475	-15,8730158730158
1,948	-10,989010989011
1,9485	-6,10500610500608
1,949	3,66300366300365
1,9495	18,3150183150183
1,95	28,083028083028
1,9505	37,8510378510377
1,951	28,083028083028
1,9515	28,083028083028
1,952	23,1990231990231
1,9525	23,1990231990231
1,953	18,3150183150183
1,9535	37,8510378510377
1,954	54,9450549450548
1,9545	59,8290598290596
1,955	74,4810744810742
1,9555	108,669108669108
1,956	123,321123321123
1,9565	98,9010989010986
1,957	74,4810744810742
1,9575	42,7350427350426
1,958	18,3150183150183
1,9585	-6,10500610500608
1,959	-20,7570207570207
1,9595	-45,177045177045
1,96	-67,1550671550669
1,9605	-72,0390720390718
1,961	-57,3870573870572
1,9615	-30,5250305250304
1,962	-15,8730158730158
1,9625	-10,989010989011
1,963	-10,989010989011
1,9635	-15,8730158730158
1,964	-10,989010989011
1,9645	-6,10500610500608
1,965	3,66300366300365
1,9655	13,4310134310134
1,966	18,3150183150183
1,9665	18,3150183150183
1,967	18,3150183150183
1,9675	13,4310134310134
1,968	3,66300366300365
1,9685	-1,22100122100122
1,969	-1,22100122100122
1,9695	3,66300366300365
1,97	3,66300366300365
1,9705	3,66300366300365
1,971	3,66300366300365
1,9715	3,66300366300365
1,972	3,66300366300365
1,9725	3,66300366300365
1,973	3,66300366300365
1,9735	3,66300366300365
1,974	3,66300366300365
1,9745	3,66300366300365
1,975	-10,989010989011
1,9755	-10,989010989011
1,976	-10,989010989011
1,9765	-6,10500610500608
1,977	3,66300366300365
1,9775	8,54700854700852
1,978	18,3150183150183
1,9785	8,54700854700852
1,979	3,66300366300365
1,9795	3,66300366300365
1,98	-6,10500610500608
1,9805	-10,989010989011
1,981	-10,989010989011
1,9815	-6,10500610500608
1,982	-1,22100122100122
1,9825	3,66300366300365
1,983	13,4310134310134
1,9835	18,3150183150183
1,984	18,3150183150183
1,9845	18,3150183150183
1,985	13,4310134310134
1,9855	13,4310134310134
1,986	3,66300366300365
1,9865	-10,989010989011
1,987	-30,5250305250304
1,9875	-35,4090354090353
1,988	-30,5250305250304
1,9885	-15,8730158730158
1,989	-6,10500610500608
1,9895	3,66300366300365
1,99	13,4310134310134
1,9905	23,1990231990231
1,991	23,1990231990231
1,9915	23,1990231990231
1,992	23,1990231990231
1,9925	37,8510378510377
1,993	69,5970695970694
1,9935	98,9010989010986
1,994	113,553113553113
1,9945	94,0170940170937
1,995	47,6190476190475
1,9955	3,66300366300365
1,996	-20,7570207570207
1,9965	-30,5250305250304
1,997	-30,5250305250304
1,9975	-30,5250305250304
1,998	-25,6410256410256
1,9985	-20,7570207570207
1,999	-10,989010989011
1,9995	-10,989010989011
2	-10,989010989011
2,0005	-15,8730158730158
2,001	-20,7570207570207
2,0015	-15,8730158730158
2,002	-15,8730158730158
2,0025	-10,989010989011
2,003	-6,10500610500608
2,0035	-1,22100122100122
2,004	3,66300366300365
2,0045	3,66300366300365
2,005	3,66300366300365
2,0055	3,66300366300365
2,006	8,54700854700852
2,0065	8,54700854700852
2,007	18,3150183150183
2,0075	13,4310134310134
2,008	18,3150183150183
2,0085	18,3150183150183
2,009	13,4310134310134
2,0095	8,54700854700852
2,01	8,54700854700852
2,0105	8,54700854700852
2,011	3,66300366300365
2,0115	3,66300366300365
2,012	3,66300366300365
2,0125	3,66300366300365
2,013	8,54700854700852
2,0135	13,4310134310134
2,014	23,1990231990231
2,0145	23,1990231990231
2,015	23,1990231990231
2,0155	18,3150183150183
2,016	8,54700854700852
2,0165	3,66300366300365
2,017	-1,22100122100122
2,0175	8,54700854700852
2,018	13,4310134310134
2,0185	8,54700854700852
2,019	-1,22100122100122
2,0195	-10,989010989011
2,02	-10,989010989011
2,0205	-20,7570207570207
2,021	-30,5250305250304
2,0215	-40,2930402930402
2,022	-52,5030525030523
2,0225	-52,5030525030523
2,023	-40,2930402930402
2,0235	-30,5250305250304
2,024	-15,8730158730158
2,0245	-1,22100122100122
2,025	13,4310134310134
2,0255	18,3150183150183
2,026	18,3150183150183
2,0265	13,4310134310134
2,027	8,54700854700852
2,0275	13,4310134310134
2,028	18,3150183150183
2,0285	8,54700854700852
2,029	-1,22100122100122
2,0295	3,66300366300365
2,03	-1,22100122100122
2,0305	-6,10500610500608
2,031	-6,10500610500608
2,0315	-10,989010989011
2,032	-10,989010989011
2,0325	-6,10500610500608
2,033	3,66300366300365
2,0335	18,3150183150183
2,034	47,6190476190475
2,0345	108,669108669108
2,035	169,71916971917
2,0355	189,255189255189
2,036	169,71916971917
2,0365	137,973137973138
2,037	98,9010989010986
2,0375	54,9450549450548
2,038	8,54700854700852
2,0385	-25,6410256410256
2,039	-52,5030525030523
2,0395	-72,0390720390718
2,04	-86,6910866910864
2,0405	-101,343101343101
2,041	-111,111111111111
2,0415	-96,4590964590961
2,042	-72,0390720390718
2,0425	-57,3870573870572
2,043	-52,5030525030523
2,0435	-40,2930402930402
2,044	-30,5250305250304
2,0445	-20,7570207570207
2,045	-10,989010989011
2,0455	-10,989010989011
2,046	-15,8730158730158
2,0465	-10,989010989011
2,047	-1,22100122100122
2,0475	37,8510378510377
2,048	79,3650793650791
2,0485	98,9010989010986
2,049	98,9010989010986
2,0495	74,4810744810742
2,05	47,6190476190475
2,0505	28,083028083028
2,051	23,1990231990231
2,0515	28,083028083028
2,052	28,083028083028
2,0525	18,3150183150183
2,053	-1,22100122100122
2,0535	-10,989010989011
2,054	-10,989010989011
2,0545	-10,989010989011
2,055	-10,989010989011
2,0555	-6,10500610500608
2,056	-6,10500610500608
2,0565	-10,989010989011
2,057	-10,989010989011
2,0575	-15,8730158730158
2,058	-20,7570207570207
2,0585	-20,7570207570207
2,059	-20,7570207570207
2,0595	-10,989010989011
2,06	-10,989010989011
2,0605	-10,989010989011
2,061	-10,989010989011
2,0615	-10,989010989011
2,062	-10,989010989011
2,0625	-10,989010989011
2,063	-6,10500610500608
2,0635	3,66300366300365
2,064	23,1990231990231
2,0645	37,8510378510377
2,065	32,9670329670329
2,0655	28,083028083028
2,066	23,1990231990231
2,0665	23,1990231990231
2,067	23,1990231990231
2,0675	28,083028083028
2,068	28,083028083028
2,0685	8,54700854700852
2,069	-6,10500610500608
2,0695	-25,6410256410256
2,07	-35,4090354090353
2,0705	-30,5250305250304
2,071	-15,8730158730158
2,0715	3,66300366300365
2,072	18,3150183150183
2,0725	28,083028083028
2,073	32,9670329670329
2,0735	28,083028083028
2,074	23,1990231990231
2,0745	18,3150183150183
2,075	8,54700854700852
2,0755	-6,10500610500608
2,076	-15,8730158730158
2,0765	-20,7570207570207
2,077	-20,7570207570207
2,0775	-10,989010989011
2,078	-6,10500610500608
2,0785	3,66300366300365
2,079	3,66300366300365
2,0795	3,66300366300365
2,08	3,66300366300365
2,0805	8,54700854700852
2,081	8,54700854700852
2,0815	13,4310134310134
2,082	18,3150183150183
2,0825	18,3150183150183
2,083	13,4310134310134
2,0835	8,54700854700852
2,084	8,54700854700852
2,0845	13,4310134310134
2,085	18,3150183150183
2,0855	18,3150183150183
2,086	8,54700854700852
2,0865	3,66300366300365
2,087	-10,989010989011
2,0875	-10,989010989011
2,088	3,66300366300365
2,0885	8,54700854700852
2,089	18,3150183150183
2,0895	18,3150183150183
2,09	23,1990231990231
2,0905	23,1990231990231
2,091	18,3150183150183
2,0915	8,54700854700852
2,092	3,66300366300365
2,0925	-1,22100122100122
2,093	-1,22100122100122
2,0935	-6,10500610500608
2,094	-10,989010989011
2,0945	-1,22100122100122
2,095	3,66300366300365
2,0955	3,66300366300365
2,096	8,54700854700852
2,0965	8,54700854700852
2,097	-1,22100122100122
2,0975	-10,989010989011
2,098	-6,10500610500608
2,0985	8,54700854700852
2,099	13,4310134310134
2,0995	13,4310134310134
2,1	8,54700854700852
2,1005	3,66300366300365
2,101	3,66300366300365
2,1015	3,66300366300365
2,102	-1,22100122100122
2,1025	3,66300366300365
2,103	3,66300366300365
2,1035	8,54700854700852
2,104	8,54700854700852
2,1045	13,4310134310134
2,105	23,1990231990231
2,1055	23,1990231990231
2,106	18,3150183150183
2,1065	8,54700854700852
2,107	8,54700854700852
2,1075	3,66300366300365
2,108	-6,10500610500608
2,1085	-10,989010989011
2,109	-20,7570207570207
2,1095	-25,6410256410256
2,11	-15,8730158730158
2,1105	-15,8730158730158
2,111	-35,4090354090353
2,1115	-57,3870573870572
2,112	-52,5030525030523
2,1125	-30,5250305250304
2,113	3,66300366300365
2,1135	37,8510378510377
2,114	64,7130647130645
2,1145	64,7130647130645
2,115	47,6190476190475
2,1155	37,8510378510377
2,116	23,1990231990231
2,1165	8,54700854700852
2,117	-1,22100122100122
2,1175	-6,10500610500608
2,118	-1,22100122100122
2,1185	3,66300366300365
2,119	8,54700854700852
2,1195	13,4310134310134
2,12	8,54700854700852
2,1205	8,54700854700852
2,121	8,54700854700852
2,1215	8,54700854700852
2,122	23,1990231990231
2,1225	37,8510378510377
2,123	42,7350427350426
2,1235	37,8510378510377
2,124	37,8510378510377
2,1245	28,083028083028
2,125	18,3150183150183
2,1255	3,66300366300365
2,126	-10,989010989011
2,1265	-10,989010989011
2,127	-10,989010989011
2,1275	-6,10500610500608
2,128	-6,10500610500608
2,1285	-6,10500610500608
2,129	-6,10500610500608
2,1295	-6,10500610500608
2,13	-6,10500610500608
2,1305	-6,10500610500608
2,131	-10,989010989011
2,1315	-10,989010989011
2,132	-15,8730158730158
2,1325	-20,7570207570207
2,133	-25,6410256410256
2,1335	-25,6410256410256
2,134	-10,989010989011
2,1345	13,4310134310134
2,135	32,9670329670329
2,1355	42,7350427350426
2,136	37,8510378510377
2,1365	28,083028083028
2,137	13,4310134310134
2,1375	-10,989010989011
2,138	-25,6410256410256
2,1385	-20,7570207570207
2,139	-6,10500610500608
2,1395	3,66300366300365
2,14	3,66300366300365
2,1405	-10,989010989011
2,141	-40,2930402930402
2,1415	-52,5030525030523
2,142	-45,177045177045
2,1425	-30,5250305250304
2,143	-10,989010989011
2,1435	8,54700854700852
2,144	18,3150183150183
2,1445	13,4310134310134
2,145	13,4310134310134
2,1455	8,54700854700852
2,146	8,54700854700852
2,1465	13,4310134310134
2,147	23,1990231990231
2,1475	28,083028083028
2,148	32,9670329670329
2,1485	28,083028083028
2,149	23,1990231990231
2,1495	18,3150183150183
2,15	8,54700854700852
2,1505	8,54700854700852
2,151	8,54700854700852
2,1515	8,54700854700852
2,152	8,54700854700852
2,1525	8,54700854700852
2,153	3,66300366300365
2,1535	-1,22100122100122
2,154	8,54700854700852
2,1545	42,7350427350426
2,155	69,5970695970694
2,1555	59,8290598290596
2,156	23,1990231990231
2,1565	-1,22100122100122
2,157	-10,989010989011
2,1575	-20,7570207570207
2,158	-10,989010989011
2,1585	-1,22100122100122
2,159	8,54700854700852
2,1595	8,54700854700852
2,16	3,66300366300365
2,1605	-1,22100122100122
2,161	-6,10500610500608
2,1615	-10,989010989011
2,162	-10,989010989011
2,1625	-10,989010989011
2,163	-10,989010989011
2,1635	-10,989010989011
2,164	-1,22100122100122
2,1645	3,66300366300365
2,165	8,54700854700852
2,1655	18,3150183150183
2,166	13,4310134310134
2,1665	-1,22100122100122
2,167	-10,989010989011
2,1675	-10,989010989011
2,168	-15,8730158730158
2,1685	-10,989010989011
2,169	-10,989010989011
2,1695	-25,6410256410256
2,17	-35,4090354090353
2,1705	-30,5250305250304
2,171	-10,989010989011
2,1715	23,1990231990231
2,172	54,9450549450548
2,1725	69,5970695970694
2,173	64,7130647130645
2,1735	47,6190476190475
2,174	28,083028083028
2,1745	3,66300366300365
2,175	-10,989010989011
2,1755	-15,8730158730158
2,176	-15,8730158730158
2,1765	-10,989010989011
2,177	-6,10500610500608
2,1775	-10,989010989011
2,178	-10,989010989011
2,1785	8,54700854700852
2,179	28,083028083028
2,1795	37,8510378510377
2,18	47,6190476190475
2,1805	37,8510378510377
2,181	18,3150183150183
2,1815	3,66300366300365
2,182	3,66300366300365
2,1825	3,66300366300365
2,183	3,66300366300365
2,1835	-1,22100122100122
2,184	-1,22100122100122
2,1845	-10,989010989011
2,185	-10,989010989011
2,1855	-10,989010989011
2,186	-10,989010989011
2,1865	-6,10500610500608
2,187	-1,22100122100122
2,1875	-6,10500610500608
2,188	-1,22100122100122
2,1885	-1,22100122100122
2,189	-6,10500610500608
2,1895	-6,10500610500608
2,19	-1,22100122100122
2,1905	3,66300366300365
2,191	-1,22100122100122
2,1915	-6,10500610500608
2,192	-10,989010989011
2,1925	-10,989010989011
2,193	-15,8730158730158
2,1935	-10,989010989011
2,194	-15,8730158730158
2,1945	-10,989010989011
2,195	-10,989010989011
2,1955	-6,10500610500608
2,196	-6,10500610500608
2,1965	3,66300366300365
2,197	13,4310134310134
2,1975	23,1990231990231
2,198	47,6190476190475
2,1985	69,5970695970694
2,199	89,1330891330888
2,1995	89,1330891330888
2,2	64,7130647130645
2,2005	37,8510378510377
2,201	18,3150183150183
2,2015	8,54700854700852
2,202	3,66300366300365
2,2025	-6,10500610500608
2,203	-1,22100122100122
2,2035	-1,22100122100122
2,204	-10,989010989011
2,2045	-6,10500610500608
2,205	-10,989010989011
2,2055	-10,989010989011
2,206	-6,10500610500608
2,2065	-6,10500610500608
2,207	-10,989010989011
2,2075	-6,10500610500608
2,208	-10,989010989011
2,2085	-10,989010989011
2,209	-20,7570207570207
2,2095	-30,5250305250304
2,21	-30,5250305250304
2,2105	-30,5250305250304
2,211	-30,5250305250304
2,2115	-20,7570207570207
2,212	-10,989010989011
2,2125	-1,22100122100122
2,213	8,54700854700852
2,2135	18,3150183150183
2,214	28,083028083028
2,2145	32,9670329670329
2,215	42,7350427350426
2,2155	42,7350427350426
2,216	37,8510378510377
2,2165	28,083028083028
2,217	18,3150183150183
2,2175	-1,22100122100122
2,218	-10,989010989011
2,2185	-10,989010989011
2,219	-15,8730158730158
2,2195	-15,8730158730158
2,22	-10,989010989011
2,2205	-10,989010989011
2,221	-20,7570207570207
2,2215	-20,7570207570207
2,222	-10,989010989011
2,2225	-1,22100122100122
2,223	8,54700854700852
2,2235	18,3150183150183
2,224	23,1990231990231
2,2245	18,3150183150183
2,225	13,4310134310134
2,2255	13,4310134310134
2,226	18,3150183150183
2,2265	8,54700854700852
2,227	3,66300366300365
2,2275	3,66300366300365
2,228	3,66300366300365
2,2285	18,3150183150183
2,229	8,54700854700852
2,2295	3,66300366300365
2,23	3,66300366300365
2,2305	8,54700854700852
2,231	32,9670329670329
2,2315	64,7130647130645
2,232	69,5970695970694
2,2325	59,8290598290596
2,233	28,083028083028
2,2335	8,54700854700852
2,234	-1,22100122100122
2,2345	-15,8730158730158
2,235	-15,8730158730158
2,2355	-20,7570207570207
2,236	-30,5250305250304
2,2365	-30,5250305250304
2,237	-30,5250305250304
2,2375	-20,7570207570207
2,238	-25,6410256410256
2,2385	-25,6410256410256
2,239	-25,6410256410256
2,2395	-30,5250305250304
2,24	-20,7570207570207
2,2405	-10,989010989011
2,241	-20,7570207570207
2,2415	-35,4090354090353
2,242	-35,4090354090353
2,2425	-15,8730158730158
2,243	8,54700854700852
2,2435	59,8290598290596
2,244	113,553113553113
2,2445	133,089133089133
2,245	118,437118437118
2,2455	108,669108669108
2,246	84,249084249084
2,2465	54,9450549450548
2,247	23,1990231990231
2,2475	3,66300366300365
2,248	-6,10500610500608
2,2485	-10,989010989011
2,249	-10,989010989011
2,2495	-20,7570207570207
2,25	-20,7570207570207
2,2505	-10,989010989011
2,251	-10,989010989011
2,2515	-6,10500610500608
2,252	-10,989010989011
2,2525	-10,989010989011
2,253	-10,989010989011
2,2535	-10,989010989011
2,254	-6,10500610500608
2,2545	3,66300366300365
2,255	3,66300366300365
2,2555	3,66300366300365
2,256	3,66300366300365
2,2565	-1,22100122100122
2,257	3,66300366300365
2,2575	8,54700854700852
2,258	18,3150183150183
2,2585	23,1990231990231
2,259	18,3150183150183
2,2595	8,54700854700852
2,26	8,54700854700852
2,2605	3,66300366300365
2,261	-1,22100122100122
2,2615	-20,7570207570207
2,262	-35,4090354090353
2,2625	-45,177045177045
2,263	-40,2930402930402
2,2635	-30,5250305250304
2,264	-15,8730158730158
2,2645	-6,10500610500608
2,265	3,66300366300365
2,2655	3,66300366300365
2,266	3,66300366300365
2,2665	3,66300366300365
2,267	3,66300366300365
2,2675	3,66300366300365
2,268	8,54700854700852
2,2685	13,4310134310134
2,269	18,3150183150183
2,2695	13,4310134310134
2,27	8,54700854700852
2,2705	13,4310134310134
2,271	13,4310134310134
2,2715	8,54700854700852
2,272	8,54700854700852
2,2725	8,54700854700852
2,273	13,4310134310134
2,2735	18,3150183150183
2,274	18,3150183150183
2,2745	13,4310134310134
2,275	8,54700854700852
2,2755	8,54700854700852
2,276	18,3150183150183
2,2765	13,4310134310134
2,277	8,54700854700852
2,2775	8,54700854700852
2,278	3,66300366300365
2,2785	-6,10500610500608
2,279	-15,8730158730158
2,2795	-20,7570207570207
2,28	-15,8730158730158
2,2805	-10,989010989011
2,281	-10,989010989011
2,2815	-15,8730158730158
2,282	-20,7570207570207
2,2825	-20,7570207570207
2,283	-10,989010989011
2,2835	-1,22100122100122
2,284	8,54700854700852
2,2845	18,3150183150183
2,285	54,9450549450548
2,2855	98,9010989010986
2,286	123,321123321123
2,2865	118,437118437118
2,287	98,9010989010986
2,2875	79,3650793650791
2,288	54,9450549450548
2,2885	23,1990231990231
2,289	-6,10500610500608
2,2895	-30,5250305250304
2,29	-57,3870573870572
2,2905	-72,0390720390718
2,291	-72,0390720390718
2,2915	-67,1550671550669
2,292	-52,5030525030523
2,2925	-30,5250305250304
2,293	-20,7570207570207
2,2935	-10,989010989011
2,294	-1,22100122100122
2,2945	3,66300366300365
2,295	3,66300366300365
2,2955	8,54700854700852
2,296	8,54700854700852
2,2965	13,4310134310134
2,297	13,4310134310134
2,2975	13,4310134310134
2,298	18,3150183150183
2,2985	8,54700854700852
2,299	-6,10500610500608
2,2995	-6,10500610500608
2,3	-6,10500610500608
2,3005	-6,10500610500608
2,301	3,66300366300365
2,3015	8,54700854700852
2,302	3,66300366300365
2,3025	-1,22100122100122
2,303	-6,10500610500608
2,3035	-6,10500610500608
2,304	3,66300366300365
2,3045	3,66300366300365
2,305	3,66300366300365
2,3055	3,66300366300365
2,306	3,66300366300365
2,3065	3,66300366300365
2,307	3,66300366300365
2,3075	-1,22100122100122
2,308	-6,10500610500608
2,3085	-6,10500610500608
2,309	-1,22100122100122
2,3095	-1,22100122100122
2,31	-1,22100122100122
2,3105	-1,22100122100122
2,311	-1,22100122100122
2,3115	-1,22100122100122
2,312	3,66300366300365
2,3125	18,3150183150183
2,313	42,7350427350426
2,3135	54,9450549450548
2,314	42,7350427350426
2,3145	23,1990231990231
2,315	3,66300366300365
2,3155	3,66300366300365
2,316	3,66300366300365
2,3165	3,66300366300365
2,317	18,3150183150183
2,3175	18,3150183150183
2,318	13,4310134310134
2,3185	8,54700854700852
2,319	28,083028083028
2,3195	47,6190476190475
2,32	37,8510378510377
2,3205	23,1990231990231
2,321	-1,22100122100122
2,3215	-10,989010989011
2,322	-10,989010989011
2,3225	-15,8730158730158
2,323	-25,6410256410256
2,3235	-30,5250305250304
2,324	-30,5250305250304
2,3245	-20,7570207570207
2,325	-10,989010989011
2,3255	-1,22100122100122
2,326	13,4310134310134
2,3265	23,1990231990231
2,327	32,9670329670329
2,3275	47,6190476190475
2,328	47,6190476190475
2,3285	28,083028083028
2,329	8,54700854700852
2,3295	-10,989010989011
2,33	-30,5250305250304
2,3305	-52,5030525030523
2,331	-72,0390720390718
2,3315	-76,9230769230767
2,332	-86,6910866910864
2,3325	-76,9230769230767
2,333	-57,3870573870572
2,3335	-30,5250305250304
2,334	-6,10500610500608
2,3345	32,9670329670329
2,335	59,8290598290596
2,3355	69,5970695970694
2,336	79,3650793650791
2,3365	79,3650793650791
2,337	69,5970695970694
2,3375	59,8290598290596
2,338	37,8510378510377
2,3385	18,3150183150183
2,339	3,66300366300365
2,3395	3,66300366300365
2,34	-1,22100122100122
2,3405	3,66300366300365
2,341	-1,22100122100122
2,3415	-1,22100122100122
2,342	-1,22100122100122
2,3425	-6,10500610500608
2,343	-10,989010989011
2,3435	-6,10500610500608
2,344	8,54700854700852
2,3445	18,3150183150183
2,345	28,083028083028
2,3455	32,9670329670329
2,346	8,54700854700852
2,3465	-10,989010989011
2,347	-15,8730158730158
2,3475	-25,6410256410256
2,348	-30,5250305250304
2,3485	-30,5250305250304
2,349	-35,4090354090353
2,3495	-30,5250305250304
2,35	-15,8730158730158
2,3505	-10,989010989011
2,351	8,54700854700852
2,3515	23,1990231990231
2,352	32,9670329670329
2,3525	64,7130647130645
2,353	84,249084249084
2,3535	89,1330891330888
2,354	84,249084249084
2,3545	47,6190476190475
2,355	28,083028083028
2,3555	8,54700854700852
2,356	-1,22100122100122
2,3565	-10,989010989011
2,357	-10,989010989011
2,3575	-6,10500610500608
2,358	3,66300366300365
2,3585	13,4310134310134
2,359	18,3150183150183
2,3595	8,54700854700852
2,36	3,66300366300365
2,3605	3,66300366300365
2,361	3,66300366300365
2,3615	-6,10500610500608
2,362	-10,989010989011
2,3625	-10,989010989011
2,363	-20,7570207570207
2,3635	-35,4090354090353
2,364	-52,5030525030523
2,3645	-52,5030525030523
2,365	-52,5030525030523
2,3655	-52,5030525030523
2,366	-35,4090354090353
2,3665	-25,6410256410256
2,367	-10,989010989011
2,3675	3,66300366300365
2,368	13,4310134310134
2,3685	18,3150183150183
2,369	23,1990231990231
2,3695	18,3150183150183
2,37	13,4310134310134
2,3705	8,54700854700852
2,371	3,66300366300365
2,3715	-1,22100122100122
2,372	3,66300366300365
2,3725	13,4310134310134
2,373	23,1990231990231
2,3735	28,083028083028
2,374	28,083028083028
2,3745	37,8510378510377
2,375	47,6190476190475
2,3755	47,6190476190475
2,376	37,8510378510377
2,3765	28,083028083028
2,377	8,54700854700852
2,3775	-6,10500610500608
2,378	-10,989010989011
2,3785	-10,989010989011
2,379	-20,7570207570207
2,3795	-20,7570207570207
2,38	-10,989010989011
2,3805	-10,989010989011
2,381	-10,989010989011
2,3815	-10,989010989011
2,382	-10,989010989011
2,3825	-10,989010989011
2,383	-6,10500610500608
2,3835	3,66300366300365
2,384	8,54700854700852
2,3845	8,54700854700852
2,385	13,4310134310134
2,3855	13,4310134310134
2,386	18,3150183150183
2,3865	13,4310134310134
2,387	8,54700854700852
2,3875	8,54700854700852
2,388	18,3150183150183
2,3885	23,1990231990231
2,389	23,1990231990231
2,3895	28,083028083028
2,39	42,7350427350426
2,3905	47,6190476190475
2,391	37,8510378510377
2,3915	18,3150183150183
2,392	-1,22100122100122
2,3925	-6,10500610500608
2,393	-6,10500610500608
2,3935	-10,989010989011
2,394	-20,7570207570207
2,3945	-45,177045177045
2,395	-52,5030525030523
2,3955	-45,177045177045
2,396	-30,5250305250304
2,3965	-20,7570207570207
2,397	-15,8730158730158
2,3975	-10,989010989011
2,398	-1,22100122100122
2,3985	8,54700854700852
2,399	13,4310134310134
2,3995	18,3150183150183
2,4	28,083028083028
2,4005	54,9450549450548
2,401	69,5970695970694
2,4015	69,5970695970694
2,402	54,9450549450548
2,4025	32,9670329670329
2,403	3,66300366300365
2,4035	-20,7570207570207
2,404	-30,5250305250304
2,4045	-25,6410256410256
2,405	-15,8730158730158
2,4055	-6,10500610500608
2,406	3,66300366300365
2,4065	8,54700854700852
2,407	13,4310134310134
2,4075	28,083028083028
2,408	32,9670329670329
2,4085	28,083028083028
2,409	18,3150183150183
2,4095	8,54700854700852
2,41	-10,989010989011
2,4105	-25,6410256410256
2,411	-25,6410256410256
2,4115	-20,7570207570207
2,412	-10,989010989011
2,4125	-6,10500610500608
2,413	-1,22100122100122
2,4135	-6,10500610500608
2,414	-6,10500610500608
2,4145	-6,10500610500608
2,415	-10,989010989011
2,4155	-20,7570207570207
2,416	-15,8730158730158
2,4165	-1,22100122100122
2,417	23,1990231990231
2,4175	42,7350427350426
2,418	42,7350427350426
2,4185	32,9670329670329
2,419	32,9670329670329
2,4195	32,9670329670329
2,42	23,1990231990231
2,4205	8,54700854700852
2,421	13,4310134310134
2,4215	23,1990231990231
2,422	23,1990231990231
2,4225	18,3150183150183
2,423	3,66300366300365
2,4235	-6,10500610500608
2,424	3,66300366300365
2,4245	13,4310134310134
2,425	18,3150183150183
2,4255	18,3150183150183
2,426	8,54700854700852
2,4265	3,66300366300365
2,427	3,66300366300365
2,4275	-1,22100122100122
2,428	-1,22100122100122
2,4285	-6,10500610500608
2,429	-6,10500610500608
2,4295	-15,8730158730158
2,43	-40,2930402930402
2,4305	-62,2710622710621
2,431	-57,3870573870572
2,4315	-45,177045177045
2,432	-40,2930402930402
2,4325	-30,5250305250304
2,433	-15,8730158730158
2,4335	-6,10500610500608
2,434	3,66300366300365
2,4345	8,54700854700852
2,435	18,3150183150183
2,4355	23,1990231990231
2,436	23,1990231990231
2,4365	18,3150183150183
2,437	18,3150183150183
2,4375	18,3150183150183
2,438	23,1990231990231
2,4385	23,1990231990231
2,439	28,083028083028
2,4395	28,083028083028
2,44	23,1990231990231
2,4405	18,3150183150183
2,441	8,54700854700852
2,4415	3,66300366300365
2,442	8,54700854700852
2,4425	13,4310134310134
2,443	23,1990231990231
2,4435	28,083028083028
2,444	28,083028083028
2,4445	23,1990231990231
2,445	13,4310134310134
2,4455	3,66300366300365
2,446	-6,10500610500608
2,4465	-10,989010989011
2,447	-30,5250305250304
2,4475	-30,5250305250304
2,448	-30,5250305250304
2,4485	-35,4090354090353
2,449	-30,5250305250304
2,4495	-25,6410256410256
2,45	-10,989010989011
2,4505	3,66300366300365
2,451	23,1990231990231
2,4515	32,9670329670329
2,452	32,9670329670329
2,4525	42,7350427350426
2,453	59,8290598290596
2,4535	69,5970695970694
2,454	64,7130647130645
2,4545	37,8510378510377
2,455	13,4310134310134
2,4555	-1,22100122100122
2,456	-10,989010989011
2,4565	-20,7570207570207
2,457	-30,5250305250304
2,4575	-30,5250305250304
2,458	-20,7570207570207
2,4585	-10,989010989011
2,459	-6,10500610500608
2,4595	-10,989010989011
2,46	-6,10500610500608
2,4605	8,54700854700852
2,461	23,1990231990231
2,4615	23,1990231990231
2,462	18,3150183150183
2,4625	13,4310134310134
2,463	8,54700854700852
2,4635	8,54700854700852
2,464	3,66300366300365
2,4645	3,66300366300365
2,465	-1,22100122100122
2,4655	-6,10500610500608
2,466	-1,22100122100122
2,4665	3,66300366300365
2,467	8,54700854700852
2,4675	3,66300366300365
2,468	-10,989010989011
2,4685	-30,5250305250304
2,469	-25,6410256410256
2,4695	-15,8730158730158
2,47	-10,989010989011
2,4705	-10,989010989011
2,471	-10,989010989011
2,4715	-6,10500610500608
2,472	8,54700854700852
2,4725	23,1990231990231
2,473	32,9670329670329
2,4735	32,9670329670329
2,474	37,8510378510377
2,4745	47,6190476190475
2,475	54,9450549450548
2,4755	54,9450549450548
2,476	59,8290598290596
2,4765	54,9450549450548
2,477	28,083028083028
2,4775	-1,22100122100122
2,478	-20,7570207570207
2,4785	-20,7570207570207
2,479	-10,989010989011
2,4795	-10,989010989011
2,48	-15,8730158730158
2,4805	-20,7570207570207
2,481	-25,6410256410256
2,4815	-25,6410256410256
2,482	-15,8730158730158
2,4825	-10,989010989011
2,483	-1,22100122100122
2,4835	8,54700854700852
2,484	13,4310134310134
2,4845	13,4310134310134
2,485	8,54700854700852
2,4855	13,4310134310134
2,486	13,4310134310134
2,4865	13,4310134310134
2,487	8,54700854700852
2,4875	8,54700854700852
2,488	3,66300366300365
2,4885	-1,22100122100122
2,489	3,66300366300365
2,4895	3,66300366300365
2,49	-1,22100122100122
2,4905	-6,10500610500608
2,491	-10,989010989011
2,4915	-10,989010989011
2,492	-10,989010989011
2,4925	-6,10500610500608
2,493	3,66300366300365
2,4935	3,66300366300365
2,494	-1,22100122100122
2,4945	-6,10500610500608
2,495	-10,989010989011
2,4955	-15,8730158730158
2,496	-25,6410256410256
2,4965	-15,8730158730158
2,497	-10,989010989011
2,4975	18,3150183150183
2,498	47,6190476190475
2,4985	47,6190476190475
2,499	47,6190476190475
2,4995	54,9450549450548
2,5	54,9450549450548
2,5005	47,6190476190475
2,501	37,8510378510377
2,5015	23,1990231990231
2,502	8,54700854700852
2,5025	3,66300366300365
2,503	-1,22100122100122
2,5035	-6,10500610500608
2,504	-6,10500610500608
2,5045	3,66300366300365
2,505	3,66300366300365
2,5055	3,66300366300365
2,506	3,66300366300365
2,5065	-6,10500610500608
2,507	-10,989010989011
2,5075	-20,7570207570207
2,508	-30,5250305250304
2,5085	-35,4090354090353
2,509	-40,2930402930402
2,5095	-30,5250305250304
2,51	-15,8730158730158
2,5105	-1,22100122100122
2,511	3,66300366300365
2,5115	8,54700854700852
2,512	8,54700854700852
2,5125	8,54700854700852
2,513	13,4310134310134
2,5135	13,4310134310134
2,514	13,4310134310134
2,5145	13,4310134310134
2,515	8,54700854700852
2,5155	13,4310134310134
2,516	18,3150183150183
2,5165	13,4310134310134
2,517	18,3150183150183
2,5175	18,3150183150183
2,518	18,3150183150183
2,5185	32,9670329670329
2,519	47,6190476190475
2,5195	47,6190476190475
2,52	32,9670329670329
2,5205	23,1990231990231
2,521	8,54700854700852
2,5215	-1,22100122100122
2,522	-10,989010989011
2,5225	-20,7570207570207
2,523	-35,4090354090353
2,5235	-52,5030525030523
2,524	-57,3870573870572
2,5245	-52,5030525030523
2,525	-30,5250305250304
2,5255	-10,989010989011
2,526	-6,10500610500608
2,5265	3,66300366300365
2,527	3,66300366300365
2,5275	3,66300366300365
2,528	3,66300366300365
