Time(s)	NHPT_FLEX
0	3,66300366300365
0,0005	3,66300366300365
0,001	3,66300366300365
0,0015	3,66300366300365
0,002	3,66300366300365
0,0025	3,66300366300365
0,003	3,66300366300365
0,0035	3,66300366300365
0,004	3,66300366300365
0,0045	3,66300366300365
0,005	-1,22100122100122
0,0055	-1,22100122100122
0,006	-1,22100122100122
0,0065	-1,22100122100122
0,007	-1,22100122100122
0,0075	-1,22100122100122
0,008	-1,22100122100122
0,0085	3,66300366300365
0,009	3,66300366300365
0,0095	3,66300366300365
0,01	3,66300366300365
0,0105	3,66300366300365
0,011	3,66300366300365
0,0115	3,66300366300365
0,012	3,66300366300365
0,0125	3,66300366300365
0,013	3,66300366300365
0,0135	3,66300366300365
0,014	3,66300366300365
0,0145	3,66300366300365
0,015	8,54700854700852
0,0155	8,54700854700852
0,016	8,54700854700852
0,0165	8,54700854700852
0,017	8,54700854700852
0,0175	8,54700854700852
0,018	3,66300366300365
0,0185	3,66300366300365
0,019	3,66300366300365
0,0195	3,66300366300365
0,02	8,54700854700852
0,0205	8,54700854700852
0,021	3,66300366300365
0,0215	-1,22100122100122
0,022	-1,22100122100122
0,0225	-1,22100122100122
0,023	-1,22100122100122
0,0235	3,66300366300365
0,024	3,66300366300365
0,0245	3,66300366300365
0,025	3,66300366300365
0,0255	3,66300366300365
0,026	8,54700854700852
0,0265	8,54700854700852
0,027	8,54700854700852
0,0275	8,54700854700852
0,028	8,54700854700852
0,0285	8,54700854700852
0,029	8,54700854700852
0,0295	8,54700854700852
0,03	8,54700854700852
0,0305	8,54700854700852
0,031	3,66300366300365
0,0315	-1,22100122100122
0,032	-1,22100122100122
0,0325	-1,22100122100122
0,033	-1,22100122100122
0,0335	-1,22100122100122
0,034	-6,10500610500608
0,0345	-1,22100122100122
0,035	-1,22100122100122
0,0355	-6,10500610500608
0,036	-6,10500610500608
0,0365	-1,22100122100122
0,037	3,66300366300365
0,0375	3,66300366300365
0,038	8,54700854700852
0,0385	8,54700854700852
0,039	8,54700854700852
0,0395	8,54700854700852
0,04	8,54700854700852
0,0405	8,54700854700852
0,041	8,54700854700852
0,0415	3,66300366300365
0,042	3,66300366300365
0,0425	8,54700854700852
0,043	8,54700854700852
0,0435	3,66300366300365
0,044	3,66300366300365
0,0445	-1,22100122100122
0,045	-6,10500610500608
0,0455	-10,989010989011
0,046	-10,989010989011
0,0465	-10,989010989011
0,047	-6,10500610500608
0,0475	3,66300366300365
0,048	3,66300366300365
0,0485	3,66300366300365
0,049	13,4310134310134
0,0495	18,3150183150183
0,05	23,1990231990231
0,0505	23,1990231990231
0,051	23,1990231990231
0,0515	13,4310134310134
0,052	8,54700854700852
0,0525	8,54700854700852
0,053	3,66300366300365
0,0535	3,66300366300365
0,054	3,66300366300365
0,0545	-1,22100122100122
0,055	-1,22100122100122
0,0555	3,66300366300365
0,056	-1,22100122100122
0,0565	3,66300366300365
0,057	3,66300366300365
0,0575	3,66300366300365
0,058	3,66300366300365
0,0585	3,66300366300365
0,059	-1,22100122100122
0,0595	-1,22100122100122
0,06	-1,22100122100122
0,0605	-1,22100122100122
0,061	-1,22100122100122
0,0615	3,66300366300365
0,062	3,66300366300365
0,0625	3,66300366300365
0,063	3,66300366300365
0,0635	3,66300366300365
0,064	3,66300366300365
0,0645	-6,10500610500608
0,065	-15,8730158730158
0,0655	-15,8730158730158
0,066	-15,8730158730158
0,0665	-10,989010989011
0,067	-6,10500610500608
0,0675	8,54700854700852
0,068	28,083028083028
0,0685	37,8510378510377
0,069	42,7350427350426
0,0695	42,7350427350426
0,07	32,9670329670329
0,0705	23,1990231990231
0,071	18,3150183150183
0,0715	8,54700854700852
0,072	8,54700854700852
0,0725	8,54700854700852
0,073	-1,22100122100122
0,0735	-6,10500610500608
0,074	-10,989010989011
0,0745	-10,989010989011
0,075	-6,10500610500608
0,0755	-6,10500610500608
0,076	3,66300366300365
0,0765	8,54700854700852
0,077	3,66300366300365
0,0775	3,66300366300365
0,078	3,66300366300365
0,0785	-1,22100122100122
0,079	-6,10500610500608
0,0795	-1,22100122100122
0,08	3,66300366300365
0,0805	-1,22100122100122
0,081	-1,22100122100122
0,0815	3,66300366300365
0,082	-1,22100122100122
0,0825	-1,22100122100122
0,083	3,66300366300365
0,0835	-1,22100122100122
0,084	3,66300366300365
0,0845	-1,22100122100122
0,085	3,66300366300365
0,0855	3,66300366300365
0,086	3,66300366300365
0,0865	3,66300366300365
0,087	3,66300366300365
0,0875	3,66300366300365
0,088	8,54700854700852
0,0885	13,4310134310134
0,089	8,54700854700852
0,0895	8,54700854700852
0,09	3,66300366300365
0,0905	3,66300366300365
0,091	3,66300366300365
0,0915	3,66300366300365
0,092	8,54700854700852
0,0925	8,54700854700852
0,093	8,54700854700852
0,0935	8,54700854700852
0,094	8,54700854700852
0,0945	-1,22100122100122
0,095	-10,989010989011
0,0955	-10,989010989011
0,096	-6,10500610500608
0,0965	-1,22100122100122
0,097	3,66300366300365
0,0975	3,66300366300365
0,098	8,54700854700852
0,0985	8,54700854700852
0,099	8,54700854700852
0,0995	8,54700854700852
0,1	8,54700854700852
0,1005	8,54700854700852
0,101	8,54700854700852
0,1015	8,54700854700852
0,102	3,66300366300365
0,1025	3,66300366300365
0,103	3,66300366300365
0,1035	3,66300366300365
0,104	3,66300366300365
0,1045	8,54700854700852
0,105	3,66300366300365
0,1055	8,54700854700852
0,106	8,54700854700852
0,1065	3,66300366300365
0,107	3,66300366300365
0,1075	3,66300366300365
0,108	3,66300366300365
0,1085	3,66300366300365
0,109	3,66300366300365
0,1095	3,66300366300365
0,11	3,66300366300365
0,1105	3,66300366300365
0,111	3,66300366300365
0,1115	3,66300366300365
0,112	3,66300366300365
0,1125	3,66300366300365
0,113	3,66300366300365
0,1135	8,54700854700852
0,114	3,66300366300365
0,1145	8,54700854700852
0,115	3,66300366300365
0,1155	3,66300366300365
0,116	3,66300366300365
0,1165	3,66300366300365
0,117	3,66300366300365
0,1175	3,66300366300365
0,118	3,66300366300365
0,1185	3,66300366300365
0,119	8,54700854700852
0,1195	8,54700854700852
0,12	8,54700854700852
0,1205	3,66300366300365
0,121	3,66300366300365
0,1215	3,66300366300365
0,122	3,66300366300365
0,1225	-1,22100122100122
0,123	3,66300366300365
0,1235	3,66300366300365
0,124	3,66300366300365
0,1245	3,66300366300365
0,125	-1,22100122100122
0,1255	-1,22100122100122
0,126	-1,22100122100122
0,1265	-1,22100122100122
0,127	-1,22100122100122
0,1275	3,66300366300365
0,128	3,66300366300365
0,1285	8,54700854700852
0,129	8,54700854700852
0,1295	8,54700854700852
0,13	8,54700854700852
0,1305	-10,989010989011
0,131	-15,8730158730158
0,1315	-20,7570207570207
0,132	-20,7570207570207
0,1325	-10,989010989011
0,133	-6,10500610500608
0,1335	8,54700854700852
0,134	28,083028083028
0,1345	32,9670329670329
0,135	37,8510378510377
0,1355	32,9670329670329
0,136	23,1990231990231
0,1365	18,3150183150183
0,137	18,3150183150183
0,1375	23,1990231990231
0,138	23,1990231990231
0,1385	23,1990231990231
0,139	18,3150183150183
0,1395	8,54700854700852
0,14	3,66300366300365
0,1405	3,66300366300365
0,141	-1,22100122100122
0,1415	-6,10500610500608
0,142	-6,10500610500608
0,1425	-10,989010989011
0,143	-10,989010989011
0,1435	-10,989010989011
0,144	-10,989010989011
0,1445	-10,989010989011
0,145	-10,989010989011
0,1455	-6,10500610500608
0,146	-6,10500610500608
0,1465	-10,989010989011
0,147	-6,10500610500608
0,1475	-6,10500610500608
0,148	-1,22100122100122
0,1485	-1,22100122100122
0,149	8,54700854700852
0,1495	13,4310134310134
0,15	18,3150183150183
0,1505	18,3150183150183
0,151	8,54700854700852
0,1515	8,54700854700852
0,152	3,66300366300365
0,1525	3,66300366300365
0,153	8,54700854700852
0,1535	3,66300366300365
0,154	3,66300366300365
0,1545	3,66300366300365
0,155	3,66300366300365
0,1555	8,54700854700852
0,156	3,66300366300365
0,1565	3,66300366300365
0,157	3,66300366300365
0,1575	3,66300366300365
0,158	3,66300366300365
0,1585	3,66300366300365
0,159	3,66300366300365
0,1595	3,66300366300365
0,16	3,66300366300365
0,1605	3,66300366300365
0,161	3,66300366300365
0,1615	3,66300366300365
0,162	3,66300366300365
0,1625	3,66300366300365
0,163	3,66300366300365
0,1635	8,54700854700852
0,164	3,66300366300365
0,1645	3,66300366300365
0,165	3,66300366300365
0,1655	3,66300366300365
0,166	8,54700854700852
0,1665	8,54700854700852
0,167	8,54700854700852
0,1675	8,54700854700852
0,168	8,54700854700852
0,1685	8,54700854700852
0,169	8,54700854700852
0,1695	3,66300366300365
0,17	-1,22100122100122
0,1705	-6,10500610500608
0,171	-1,22100122100122
0,1715	-1,22100122100122
0,172	3,66300366300365
0,1725	3,66300366300365
0,173	3,66300366300365
0,1735	3,66300366300365
0,174	3,66300366300365
0,1745	3,66300366300365
0,175	3,66300366300365
0,1755	3,66300366300365
0,176	3,66300366300365
0,1765	3,66300366300365
0,177	3,66300366300365
0,1775	3,66300366300365
0,178	3,66300366300365
0,1785	3,66300366300365
0,179	8,54700854700852
0,1795	8,54700854700852
0,18	8,54700854700852
0,1805	3,66300366300365
0,181	3,66300366300365
0,1815	3,66300366300365
0,182	3,66300366300365
0,1825	3,66300366300365
0,183	3,66300366300365
0,1835	3,66300366300365
0,184	3,66300366300365
0,1845	3,66300366300365
0,185	3,66300366300365
0,1855	3,66300366300365
0,186	3,66300366300365
0,1865	3,66300366300365
0,187	3,66300366300365
0,1875	8,54700854700852
0,188	3,66300366300365
0,1885	3,66300366300365
0,189	3,66300366300365
0,1895	8,54700854700852
0,19	3,66300366300365
0,1905	3,66300366300365
0,191	3,66300366300365
0,1915	-1,22100122100122
0,192	-1,22100122100122
0,1925	3,66300366300365
0,193	3,66300366300365
0,1935	3,66300366300365
0,194	3,66300366300365
0,1945	3,66300366300365
0,195	3,66300366300365
0,1955	3,66300366300365
0,196	3,66300366300365
0,1965	3,66300366300365
0,197	3,66300366300365
0,1975	8,54700854700852
0,198	13,4310134310134
0,1985	8,54700854700852
0,199	-1,22100122100122
0,1995	-6,10500610500608
0,2	-6,10500610500608
0,2005	-1,22100122100122
0,201	-1,22100122100122
0,2015	3,66300366300365
0,202	3,66300366300365
0,2025	3,66300366300365
0,203	3,66300366300365
0,2035	3,66300366300365
0,204	3,66300366300365
0,2045	3,66300366300365
0,205	3,66300366300365
0,2055	3,66300366300365
0,206	3,66300366300365
0,2065	-1,22100122100122
0,207	-1,22100122100122
0,2075	3,66300366300365
0,208	8,54700854700852
0,2085	8,54700854700852
0,209	8,54700854700852
0,2095	13,4310134310134
0,21	8,54700854700852
0,2105	8,54700854700852
0,211	8,54700854700852
0,2115	3,66300366300365
0,212	3,66300366300365
0,2125	3,66300366300365
0,213	3,66300366300365
0,2135	3,66300366300365
0,214	3,66300366300365
0,2145	3,66300366300365
0,215	3,66300366300365
0,2155	-1,22100122100122
0,216	-1,22100122100122
0,2165	-1,22100122100122
0,217	3,66300366300365
0,2175	3,66300366300365
0,218	3,66300366300365
0,2185	3,66300366300365
0,219	8,54700854700852
0,2195	8,54700854700852
0,22	8,54700854700852
0,2205	3,66300366300365
0,221	-1,22100122100122
0,2215	-10,989010989011
0,222	-20,7570207570207
0,2225	-15,8730158730158
0,223	-10,989010989011
0,2235	-1,22100122100122
0,224	8,54700854700852
0,2245	32,9670329670329
0,225	42,7350427350426
0,2255	42,7350427350426
0,226	42,7350427350426
0,2265	32,9670329670329
0,227	28,083028083028
0,2275	18,3150183150183
0,228	13,4310134310134
0,2285	3,66300366300365
0,229	-6,10500610500608
0,2295	-10,989010989011
0,23	-15,8730158730158
0,2305	-20,7570207570207
0,231	-15,8730158730158
0,2315	-10,989010989011
0,232	-1,22100122100122
0,2325	8,54700854700852
0,233	3,66300366300365
0,2335	-1,22100122100122
0,234	-6,10500610500608
0,2345	-6,10500610500608
0,235	-6,10500610500608
0,2355	-1,22100122100122
0,236	3,66300366300365
0,2365	3,66300366300365
0,237	3,66300366300365
0,2375	-1,22100122100122
0,238	-1,22100122100122
0,2385	-6,10500610500608
0,239	-1,22100122100122
0,2395	-1,22100122100122
0,24	3,66300366300365
0,2405	3,66300366300365
0,241	3,66300366300365
0,2415	3,66300366300365
0,242	3,66300366300365
0,2425	3,66300366300365
0,243	3,66300366300365
0,2435	3,66300366300365
0,244	3,66300366300365
0,2445	3,66300366300365
0,245	3,66300366300365
0,2455	3,66300366300365
0,246	3,66300366300365
0,2465	3,66300366300365
0,247	3,66300366300365
0,2475	8,54700854700852
0,248	13,4310134310134
0,2485	8,54700854700852
0,249	8,54700854700852
0,2495	8,54700854700852
0,25	8,54700854700852
0,2505	8,54700854700852
0,251	8,54700854700852
0,2515	8,54700854700852
0,252	8,54700854700852
0,2525	8,54700854700852
0,253	3,66300366300365
0,2535	3,66300366300365
0,254	3,66300366300365
0,2545	3,66300366300365
0,255	3,66300366300365
0,2555	3,66300366300365
0,256	3,66300366300365
0,2565	3,66300366300365
0,257	3,66300366300365
0,2575	3,66300366300365
0,258	3,66300366300365
0,2585	3,66300366300365
0,259	3,66300366300365
0,2595	3,66300366300365
0,26	3,66300366300365
0,2605	3,66300366300365
0,261	3,66300366300365
0,2615	3,66300366300365
0,262	3,66300366300365
0,2625	3,66300366300365
0,263	3,66300366300365
0,2635	3,66300366300365
0,264	8,54700854700852
0,2645	8,54700854700852
0,265	8,54700854700852
0,2655	8,54700854700852
0,266	3,66300366300365
0,2665	3,66300366300365
0,267	3,66300366300365
0,2675	8,54700854700852
0,268	8,54700854700852
0,2685	8,54700854700852
0,269	3,66300366300365
0,2695	3,66300366300365
0,27	-1,22100122100122
0,2705	-6,10500610500608
0,271	-10,989010989011
0,2715	-10,989010989011
0,272	-6,10500610500608
0,2725	-6,10500610500608
0,273	-1,22100122100122
0,2735	-1,22100122100122
0,274	3,66300366300365
0,2745	3,66300366300365
0,275	8,54700854700852
0,2755	3,66300366300365
0,276	3,66300366300365
0,2765	3,66300366300365
0,277	3,66300366300365
0,2775	-1,22100122100122
0,278	3,66300366300365
0,2785	3,66300366300365
0,279	-1,22100122100122
0,2795	-10,989010989011
0,28	-15,8730158730158
0,2805	-10,989010989011
0,281	-1,22100122100122
0,2815	8,54700854700852
0,282	18,3150183150183
0,2825	32,9670329670329
0,283	47,6190476190475
0,2835	47,6190476190475
0,284	47,6190476190475
0,2845	42,7350427350426
0,285	32,9670329670329
0,2855	28,083028083028
0,286	18,3150183150183
0,2865	3,66300366300365
0,287	-6,10500610500608
0,2875	-10,989010989011
0,288	-10,989010989011
0,2885	-10,989010989011
0,289	-10,989010989011
0,2895	-10,989010989011
0,29	-10,989010989011
0,2905	-10,989010989011
0,291	-6,10500610500608
0,2915	-6,10500610500608
0,292	-1,22100122100122
0,2925	-1,22100122100122
0,293	3,66300366300365
0,2935	3,66300366300365
0,294	-6,10500610500608
0,2945	-1,22100122100122
0,295	-1,22100122100122
0,2955	-1,22100122100122
0,296	-1,22100122100122
0,2965	-1,22100122100122
0,297	3,66300366300365
0,2975	-1,22100122100122
0,298	3,66300366300365
0,2985	3,66300366300365
0,299	3,66300366300365
0,2995	3,66300366300365
0,3	3,66300366300365
0,3005	-1,22100122100122
0,301	-1,22100122100122
0,3015	-1,22100122100122
0,302	3,66300366300365
0,3025	3,66300366300365
0,303	3,66300366300365
0,3035	3,66300366300365
0,304	3,66300366300365
0,3045	3,66300366300365
0,305	3,66300366300365
0,3055	3,66300366300365
0,306	8,54700854700852
0,3065	8,54700854700852
0,307	8,54700854700852
0,3075	3,66300366300365
0,308	8,54700854700852
0,3085	8,54700854700852
0,309	8,54700854700852
0,3095	3,66300366300365
0,31	3,66300366300365
0,3105	-1,22100122100122
0,311	-1,22100122100122
0,3115	-1,22100122100122
0,312	-6,10500610500608
0,3125	3,66300366300365
0,313	13,4310134310134
0,3135	23,1990231990231
0,314	18,3150183150183
0,3145	18,3150183150183
0,315	8,54700854700852
0,3155	8,54700854700852
0,316	3,66300366300365
0,3165	3,66300366300365
0,317	-6,10500610500608
0,3175	-1,22100122100122
0,318	-1,22100122100122
0,3185	3,66300366300365
0,319	3,66300366300365
0,3195	3,66300366300365
0,32	3,66300366300365
0,3205	3,66300366300365
0,321	3,66300366300365
0,3215	3,66300366300365
0,322	3,66300366300365
0,3225	3,66300366300365
0,323	3,66300366300365
0,3235	3,66300366300365
0,324	3,66300366300365
0,3245	3,66300366300365
0,325	8,54700854700852
0,3255	3,66300366300365
0,326	3,66300366300365
0,3265	3,66300366300365
0,327	3,66300366300365
0,3275	3,66300366300365
0,328	3,66300366300365
0,3285	8,54700854700852
0,329	8,54700854700852
0,3295	8,54700854700852
0,33	8,54700854700852
0,3305	8,54700854700852
0,331	3,66300366300365
0,3315	3,66300366300365
0,332	3,66300366300365
0,3325	3,66300366300365
0,333	-1,22100122100122
0,3335	-1,22100122100122
0,334	3,66300366300365
0,3345	-1,22100122100122
0,335	-1,22100122100122
0,3355	-1,22100122100122
0,336	-1,22100122100122
0,3365	3,66300366300365
0,337	-1,22100122100122
0,3375	3,66300366300365
0,338	3,66300366300365
0,3385	3,66300366300365
0,339	8,54700854700852
0,3395	13,4310134310134
0,34	18,3150183150183
0,3405	18,3150183150183
0,341	8,54700854700852
0,3415	8,54700854700852
0,342	8,54700854700852
0,3425	8,54700854700852
0,343	3,66300366300365
0,3435	3,66300366300365
0,344	3,66300366300365
0,3445	3,66300366300365
0,345	-1,22100122100122
0,3455	-1,22100122100122
0,346	-6,10500610500608
0,3465	-10,989010989011
0,347	-6,10500610500608
0,3475	-6,10500610500608
0,348	-1,22100122100122
0,3485	-1,22100122100122
0,349	3,66300366300365
0,3495	3,66300366300365
0,35	3,66300366300365
0,3505	3,66300366300365
0,351	3,66300366300365
0,3515	3,66300366300365
0,352	3,66300366300365
0,3525	3,66300366300365
0,353	3,66300366300365
0,3535	3,66300366300365
0,354	3,66300366300365
0,3545	8,54700854700852
0,355	8,54700854700852
0,3555	3,66300366300365
0,356	3,66300366300365
0,3565	3,66300366300365
0,357	3,66300366300365
0,3575	8,54700854700852
0,358	8,54700854700852
0,3585	8,54700854700852
0,359	8,54700854700852
0,3595	8,54700854700852
0,36	3,66300366300365
0,3605	3,66300366300365
0,361	3,66300366300365
0,3615	-6,10500610500608
0,362	-10,989010989011
0,3625	-6,10500610500608
0,363	-1,22100122100122
0,3635	8,54700854700852
0,364	8,54700854700852
0,3645	8,54700854700852
0,365	8,54700854700852
0,3655	3,66300366300365
0,366	3,66300366300365
0,3665	3,66300366300365
0,367	3,66300366300365
0,3675	8,54700854700852
0,368	3,66300366300365
0,3685	3,66300366300365
0,369	3,66300366300365
0,3695	3,66300366300365
0,37	-10,989010989011
0,3705	-25,6410256410256
0,371	-30,5250305250304
0,3715	-15,8730158730158
0,372	-6,10500610500608
0,3725	3,66300366300365
0,373	13,4310134310134
0,3735	32,9670329670329
0,374	47,6190476190475
0,3745	42,7350427350426
0,375	32,9670329670329
0,3755	23,1990231990231
0,376	8,54700854700852
0,3765	8,54700854700852
0,377	8,54700854700852
0,3775	8,54700854700852
0,378	18,3150183150183
0,3785	18,3150183150183
0,379	8,54700854700852
0,3795	8,54700854700852
0,38	3,66300366300365
0,3805	-6,10500610500608
0,381	-1,22100122100122
0,3815	3,66300366300365
0,382	-1,22100122100122
0,3825	-6,10500610500608
0,383	-10,989010989011
0,3835	-10,989010989011
0,384	-10,989010989011
0,3845	-10,989010989011
0,385	-6,10500610500608
0,3855	-10,989010989011
0,386	-6,10500610500608
0,3865	-6,10500610500608
0,387	-6,10500610500608
0,3875	-1,22100122100122
0,388	-1,22100122100122
0,3885	-1,22100122100122
0,389	3,66300366300365
0,3895	-1,22100122100122
0,39	-1,22100122100122
0,3905	3,66300366300365
0,391	3,66300366300365
0,3915	3,66300366300365
0,392	3,66300366300365
0,3925	3,66300366300365
0,393	3,66300366300365
0,3935	8,54700854700852
0,394	8,54700854700852
0,3945	8,54700854700852
0,395	8,54700854700852
0,3955	3,66300366300365
0,396	8,54700854700852
0,3965	8,54700854700852
0,397	3,66300366300365
0,3975	-1,22100122100122
0,398	3,66300366300365
0,3985	3,66300366300365
0,399	3,66300366300365
0,3995	3,66300366300365
0,4	3,66300366300365
0,4005	-1,22100122100122
0,401	-1,22100122100122
0,4015	3,66300366300365
0,402	3,66300366300365
0,4025	8,54700854700852
0,403	8,54700854700852
0,4035	8,54700854700852
0,404	8,54700854700852
0,4045	8,54700854700852
0,405	3,66300366300365
0,4055	3,66300366300365
0,406	3,66300366300365
0,4065	3,66300366300365
0,407	3,66300366300365
0,4075	3,66300366300365
0,408	3,66300366300365
0,4085	3,66300366300365
0,409	3,66300366300365
0,4095	3,66300366300365
0,41	3,66300366300365
0,4105	3,66300366300365
0,411	8,54700854700852
0,4115	8,54700854700852
0,412	8,54700854700852
0,4125	8,54700854700852
0,413	8,54700854700852
0,4135	8,54700854700852
0,414	8,54700854700852
0,4145	8,54700854700852
0,415	8,54700854700852
0,4155	3,66300366300365
0,416	3,66300366300365
0,4165	3,66300366300365
0,417	-1,22100122100122
0,4175	-1,22100122100122
0,418	-1,22100122100122
0,4185	-1,22100122100122
0,419	-1,22100122100122
0,4195	-1,22100122100122
0,42	-1,22100122100122
0,4205	-1,22100122100122
0,421	3,66300366300365
0,4215	8,54700854700852
0,422	13,4310134310134
0,4225	13,4310134310134
0,423	8,54700854700852
0,4235	3,66300366300365
0,424	3,66300366300365
0,4245	3,66300366300365
0,425	3,66300366300365
0,4255	3,66300366300365
0,426	3,66300366300365
0,4265	8,54700854700852
0,427	8,54700854700852
0,4275	8,54700854700852
0,428	8,54700854700852
0,4285	8,54700854700852
0,429	3,66300366300365
0,4295	8,54700854700852
0,43	3,66300366300365
0,4305	3,66300366300365
0,431	3,66300366300365
0,4315	3,66300366300365
0,432	3,66300366300365
0,4325	-1,22100122100122
0,433	-1,22100122100122
0,4335	-1,22100122100122
0,434	3,66300366300365
0,4345	3,66300366300365
0,435	3,66300366300365
0,4355	3,66300366300365
0,436	3,66300366300365
0,4365	3,66300366300365
0,437	3,66300366300365
0,4375	3,66300366300365
0,438	3,66300366300365
0,4385	3,66300366300365
0,439	3,66300366300365
0,4395	3,66300366300365
0,44	3,66300366300365
0,4405	-1,22100122100122
0,441	-1,22100122100122
0,4415	-1,22100122100122
0,442	-1,22100122100122
0,4425	-1,22100122100122
0,443	-1,22100122100122
0,4435	3,66300366300365
0,444	3,66300366300365
0,4445	3,66300366300365
0,445	3,66300366300365
0,4455	3,66300366300365
0,446	8,54700854700852
0,4465	8,54700854700852
0,447	3,66300366300365
0,4475	3,66300366300365
0,448	3,66300366300365
0,4485	-1,22100122100122
0,449	-1,22100122100122
0,4495	3,66300366300365
0,45	3,66300366300365
0,4505	8,54700854700852
0,451	18,3150183150183
0,4515	18,3150183150183
0,452	18,3150183150183
0,4525	18,3150183150183
0,453	23,1990231990231
0,4535	18,3150183150183
0,454	18,3150183150183
0,4545	13,4310134310134
0,455	8,54700854700852
0,4555	3,66300366300365
0,456	-1,22100122100122
0,4565	-10,989010989011
0,457	-20,7570207570207
0,4575	-20,7570207570207
0,458	-15,8730158730158
0,4585	-15,8730158730158
0,459	-15,8730158730158
0,4595	-15,8730158730158
0,46	-1,22100122100122
0,4605	18,3150183150183
0,461	23,1990231990231
0,4615	28,083028083028
0,462	23,1990231990231
0,4625	13,4310134310134
0,463	8,54700854700852
0,4635	8,54700854700852
0,464	3,66300366300365
0,4645	8,54700854700852
0,465	8,54700854700852
0,4655	8,54700854700852
0,466	8,54700854700852
0,4665	3,66300366300365
0,467	3,66300366300365
0,4675	3,66300366300365
0,468	3,66300366300365
0,4685	3,66300366300365
0,469	8,54700854700852
0,4695	8,54700854700852
0,47	8,54700854700852
0,4705	8,54700854700852
0,471	3,66300366300365
0,4715	-1,22100122100122
0,472	-1,22100122100122
0,4725	-10,989010989011
0,473	-10,989010989011
0,4735	-10,989010989011
0,474	-10,989010989011
0,4745	-6,10500610500608
0,475	-1,22100122100122
0,4755	3,66300366300365
0,476	3,66300366300365
0,4765	3,66300366300365
0,477	-6,10500610500608
0,4775	-6,10500610500608
0,478	-6,10500610500608
0,4785	-1,22100122100122
0,479	8,54700854700852
0,4795	8,54700854700852
0,48	8,54700854700852
0,4805	3,66300366300365
0,481	3,66300366300365
0,4815	3,66300366300365
0,482	8,54700854700852
0,4825	3,66300366300365
0,483	3,66300366300365
0,4835	3,66300366300365
0,484	8,54700854700852
0,4845	3,66300366300365
0,485	8,54700854700852
0,4855	3,66300366300365
0,486	3,66300366300365
0,4865	3,66300366300365
0,487	3,66300366300365
0,4875	3,66300366300365
0,488	8,54700854700852
0,4885	8,54700854700852
0,489	8,54700854700852
0,4895	3,66300366300365
0,49	3,66300366300365
0,4905	3,66300366300365
0,491	3,66300366300365
0,4915	3,66300366300365
0,492	8,54700854700852
0,4925	8,54700854700852
0,493	8,54700854700852
0,4935	8,54700854700852
0,494	8,54700854700852
0,4945	8,54700854700852
0,495	8,54700854700852
0,4955	8,54700854700852
0,496	3,66300366300365
0,4965	3,66300366300365
0,497	3,66300366300365
0,4975	8,54700854700852
0,498	8,54700854700852
0,4985	8,54700854700852
0,499	8,54700854700852
0,4995	3,66300366300365
0,5	8,54700854700852
0,5005	3,66300366300365
0,501	3,66300366300365
0,5015	3,66300366300365
0,502	3,66300366300365
0,5025	3,66300366300365
0,503	3,66300366300365
0,5035	-1,22100122100122
0,504	-1,22100122100122
0,5045	-1,22100122100122
0,505	3,66300366300365
0,5055	3,66300366300365
0,506	3,66300366300365
0,5065	-1,22100122100122
0,507	-1,22100122100122
0,5075	-1,22100122100122
0,508	-6,10500610500608
0,5085	-1,22100122100122
0,509	3,66300366300365
0,5095	3,66300366300365
0,51	3,66300366300365
0,5105	3,66300366300365
0,511	3,66300366300365
0,5115	3,66300366300365
0,512	3,66300366300365
0,5125	3,66300366300365
0,513	3,66300366300365
0,5135	3,66300366300365
0,514	3,66300366300365
0,5145	8,54700854700852
0,515	13,4310134310134
0,5155	8,54700854700852
0,516	8,54700854700852
0,5165	13,4310134310134
0,517	13,4310134310134
0,5175	13,4310134310134
0,518	8,54700854700852
0,5185	8,54700854700852
0,519	3,66300366300365
0,5195	3,66300366300365
0,52	3,66300366300365
0,5205	3,66300366300365
0,521	3,66300366300365
0,5215	3,66300366300365
0,522	3,66300366300365
0,5225	3,66300366300365
0,523	3,66300366300365
0,5235	3,66300366300365
0,524	3,66300366300365
0,5245	3,66300366300365
0,525	3,66300366300365
0,5255	3,66300366300365
0,526	3,66300366300365
0,5265	3,66300366300365
0,527	3,66300366300365
0,5275	-1,22100122100122
0,528	-1,22100122100122
0,5285	3,66300366300365
0,529	3,66300366300365
0,5295	-1,22100122100122
0,53	-1,22100122100122
0,5305	-1,22100122100122
0,531	-1,22100122100122
0,5315	3,66300366300365
0,532	3,66300366300365
0,5325	3,66300366300365
0,533	3,66300366300365
0,5335	3,66300366300365
0,534	3,66300366300365
0,5345	3,66300366300365
0,535	3,66300366300365
0,5355	3,66300366300365
0,536	3,66300366300365
0,5365	3,66300366300365
0,537	3,66300366300365
0,5375	3,66300366300365
0,538	8,54700854700852
0,5385	8,54700854700852
0,539	3,66300366300365
0,5395	3,66300366300365
0,54	3,66300366300365
0,5405	3,66300366300365
0,541	3,66300366300365
0,5415	3,66300366300365
0,542	-10,989010989011
0,5425	-15,8730158730158
0,543	-15,8730158730158
0,5435	-10,989010989011
0,544	-6,10500610500608
0,5445	3,66300366300365
0,545	23,1990231990231
0,5455	42,7350427350426
0,546	32,9670329670329
0,5465	28,083028083028
0,547	23,1990231990231
0,5475	18,3150183150183
0,548	8,54700854700852
0,5485	3,66300366300365
0,549	3,66300366300365
0,5495	3,66300366300365
0,55	3,66300366300365
0,5505	-1,22100122100122
0,551	-6,10500610500608
0,5515	-6,10500610500608
0,552	-1,22100122100122
0,5525	-1,22100122100122
0,553	-1,22100122100122
0,5535	3,66300366300365
0,554	3,66300366300365
0,5545	3,66300366300365
0,555	3,66300366300365
0,5555	8,54700854700852
0,556	13,4310134310134
0,5565	8,54700854700852
0,557	8,54700854700852
0,5575	3,66300366300365
0,558	3,66300366300365
0,5585	3,66300366300365
0,559	8,54700854700852
0,5595	3,66300366300365
0,56	-1,22100122100122
0,5605	-6,10500610500608
0,561	-10,989010989011
0,5615	-10,989010989011
0,562	-6,10500610500608
0,5625	-1,22100122100122
0,563	-1,22100122100122
0,5635	3,66300366300365
0,564	-1,22100122100122
0,5645	-1,22100122100122
0,565	-1,22100122100122
0,5655	-1,22100122100122
0,566	-1,22100122100122
0,5665	-6,10500610500608
0,567	-1,22100122100122
0,5675	-1,22100122100122
0,568	3,66300366300365
0,5685	8,54700854700852
0,569	18,3150183150183
0,5695	23,1990231990231
0,57	23,1990231990231
0,5705	18,3150183150183
0,571	3,66300366300365
0,5715	3,66300366300365
0,572	3,66300366300365
0,5725	8,54700854700852
0,573	8,54700854700852
0,5735	8,54700854700852
0,574	-1,22100122100122
0,5745	-6,10500610500608
0,575	-6,10500610500608
0,5755	-6,10500610500608
0,576	-6,10500610500608
0,5765	-6,10500610500608
0,577	-6,10500610500608
0,5775	-1,22100122100122
0,578	3,66300366300365
0,5785	3,66300366300365
0,579	8,54700854700852
0,5795	8,54700854700852
0,58	8,54700854700852
0,5805	8,54700854700852
0,581	8,54700854700852
0,5815	8,54700854700852
0,582	8,54700854700852
0,5825	8,54700854700852
0,583	3,66300366300365
0,5835	3,66300366300365
0,584	3,66300366300365
0,5845	3,66300366300365
0,585	3,66300366300365
0,5855	3,66300366300365
0,586	3,66300366300365
0,5865	3,66300366300365
0,587	3,66300366300365
0,5875	8,54700854700852
0,588	3,66300366300365
0,5885	3,66300366300365
0,589	3,66300366300365
0,5895	3,66300366300365
0,59	3,66300366300365
0,5905	3,66300366300365
0,591	8,54700854700852
0,5915	3,66300366300365
0,592	3,66300366300365
0,5925	3,66300366300365
0,593	3,66300366300365
0,5935	8,54700854700852
0,594	3,66300366300365
0,5945	3,66300366300365
0,595	-1,22100122100122
0,5955	-6,10500610500608
0,596	-1,22100122100122
0,5965	3,66300366300365
0,597	3,66300366300365
0,5975	3,66300366300365
0,598	3,66300366300365
0,5985	3,66300366300365
0,599	3,66300366300365
0,5995	3,66300366300365
0,6	8,54700854700852
0,6005	13,4310134310134
0,601	18,3150183150183
0,6015	18,3150183150183
0,602	13,4310134310134
0,6025	13,4310134310134
0,603	8,54700854700852
0,6035	3,66300366300365
0,604	3,66300366300365
0,6045	3,66300366300365
0,605	3,66300366300365
0,6055	3,66300366300365
0,606	-1,22100122100122
0,6065	-1,22100122100122
0,607	-1,22100122100122
0,6075	-1,22100122100122
0,608	3,66300366300365
0,6085	3,66300366300365
0,609	3,66300366300365
0,6095	3,66300366300365
0,61	3,66300366300365
0,6105	3,66300366300365
0,611	3,66300366300365
0,6115	3,66300366300365
0,612	3,66300366300365
0,6125	-6,10500610500608
0,613	-6,10500610500608
0,6135	-10,989010989011
0,614	-6,10500610500608
0,6145	-6,10500610500608
0,615	-1,22100122100122
0,6155	-1,22100122100122
0,616	3,66300366300365
0,6165	3,66300366300365
0,617	-1,22100122100122
0,6175	-10,989010989011
0,618	-10,989010989011
0,6185	-10,989010989011
0,619	-10,989010989011
0,6195	-1,22100122100122
0,62	8,54700854700852
0,6205	23,1990231990231
0,621	32,9670329670329
0,6215	28,083028083028
0,622	28,083028083028
0,6225	28,083028083028
0,623	23,1990231990231
0,6235	23,1990231990231
0,624	18,3150183150183
0,6245	18,3150183150183
0,625	13,4310134310134
0,6255	3,66300366300365
0,626	3,66300366300365
0,6265	-1,22100122100122
0,627	-1,22100122100122
0,6275	3,66300366300365
0,628	-1,22100122100122
0,6285	-1,22100122100122
0,629	-6,10500610500608
0,6295	-6,10500610500608
0,63	-6,10500610500608
0,6305	-1,22100122100122
0,631	-1,22100122100122
0,6315	3,66300366300365
0,632	3,66300366300365
0,6325	-6,10500610500608
0,633	-10,989010989011
0,6335	-10,989010989011
0,634	-6,10500610500608
0,6345	3,66300366300365
0,635	3,66300366300365
0,6355	3,66300366300365
0,636	3,66300366300365
0,6365	3,66300366300365
0,637	3,66300366300365
0,6375	3,66300366300365
0,638	3,66300366300365
0,6385	8,54700854700852
0,639	8,54700854700852
0,6395	8,54700854700852
0,64	8,54700854700852
0,6405	3,66300366300365
0,641	3,66300366300365
0,6415	-1,22100122100122
0,642	3,66300366300365
0,6425	3,66300366300365
0,643	3,66300366300365
0,6435	3,66300366300365
0,644	3,66300366300365
0,6445	3,66300366300365
0,645	3,66300366300365
0,6455	3,66300366300365
0,646	3,66300366300365
0,6465	8,54700854700852
0,647	8,54700854700852
0,6475	8,54700854700852
0,648	8,54700854700852
0,6485	8,54700854700852
0,649	8,54700854700852
0,6495	8,54700854700852
0,65	8,54700854700852
0,6505	3,66300366300365
0,651	3,66300366300365
0,6515	3,66300366300365
0,652	3,66300366300365
0,6525	3,66300366300365
0,653	3,66300366300365
0,6535	-1,22100122100122
0,654	-10,989010989011
0,6545	-10,989010989011
0,655	-10,989010989011
0,6555	-10,989010989011
0,656	-6,10500610500608
0,6565	-1,22100122100122
0,657	-1,22100122100122
0,6575	8,54700854700852
0,658	18,3150183150183
0,6585	18,3150183150183
0,659	13,4310134310134
0,6595	13,4310134310134
0,66	8,54700854700852
0,6605	8,54700854700852
0,661	8,54700854700852
0,6615	8,54700854700852
0,662	8,54700854700852
0,6625	3,66300366300365
0,663	3,66300366300365
0,6635	-1,22100122100122
0,664	3,66300366300365
0,6645	8,54700854700852
0,665	18,3150183150183
0,6655	18,3150183150183
0,666	13,4310134310134
0,6665	8,54700854700852
0,667	8,54700854700852
0,6675	3,66300366300365
0,668	3,66300366300365
0,6685	3,66300366300365
0,669	-1,22100122100122
0,6695	-1,22100122100122
0,67	-6,10500610500608
0,6705	-6,10500610500608
0,671	-6,10500610500608
0,6715	-6,10500610500608
0,672	-10,989010989011
0,6725	-6,10500610500608
0,673	-6,10500610500608
0,6735	-6,10500610500608
0,674	-1,22100122100122
0,6745	3,66300366300365
0,675	3,66300366300365
0,6755	3,66300366300365
0,676	8,54700854700852
0,6765	3,66300366300365
0,677	8,54700854700852
0,6775	3,66300366300365
0,678	3,66300366300365
0,6785	3,66300366300365
0,679	3,66300366300365
0,6795	3,66300366300365
0,68	3,66300366300365
0,6805	3,66300366300365
0,681	3,66300366300365
0,6815	3,66300366300365
0,682	3,66300366300365
0,6825	3,66300366300365
0,683	3,66300366300365
0,6835	3,66300366300365
0,684	3,66300366300365
0,6845	3,66300366300365
0,685	8,54700854700852
0,6855	8,54700854700852
0,686	18,3150183150183
0,6865	18,3150183150183
0,687	23,1990231990231
0,6875	23,1990231990231
0,688	18,3150183150183
0,6885	3,66300366300365
0,689	3,66300366300365
0,6895	3,66300366300365
0,69	-1,22100122100122
0,6905	-1,22100122100122
0,691	3,66300366300365
0,6915	3,66300366300365
0,692	3,66300366300365
0,6925	3,66300366300365
0,693	-1,22100122100122
0,6935	-1,22100122100122
0,694	-1,22100122100122
0,6945	3,66300366300365
0,695	3,66300366300365
0,6955	3,66300366300365
0,696	3,66300366300365
0,6965	3,66300366300365
0,697	3,66300366300365
0,6975	3,66300366300365
0,698	3,66300366300365
0,6985	3,66300366300365
0,699	3,66300366300365
0,6995	3,66300366300365
0,7	3,66300366300365
0,7005	3,66300366300365
0,701	3,66300366300365
0,7015	3,66300366300365
0,702	8,54700854700852
0,7025	8,54700854700852
0,703	8,54700854700852
0,7035	13,4310134310134
0,704	8,54700854700852
0,7045	3,66300366300365
0,705	3,66300366300365
0,7055	3,66300366300365
0,706	-6,10500610500608
0,7065	-15,8730158730158
0,707	-25,6410256410256
0,7075	-20,7570207570207
0,708	-10,989010989011
0,7085	-6,10500610500608
0,709	8,54700854700852
0,7095	23,1990231990231
0,71	32,9670329670329
0,7105	28,083028083028
0,711	32,9670329670329
0,7115	28,083028083028
0,712	23,1990231990231
0,7125	18,3150183150183
0,713	13,4310134310134
0,7135	8,54700854700852
0,714	8,54700854700852
0,7145	3,66300366300365
0,715	-6,10500610500608
0,7155	-6,10500610500608
0,716	-6,10500610500608
0,7165	-1,22100122100122
0,717	-1,22100122100122
0,7175	-1,22100122100122
0,718	3,66300366300365
0,7185	3,66300366300365
0,719	-1,22100122100122
0,7195	-6,10500610500608
0,72	-10,989010989011
0,7205	-10,989010989011
0,721	-1,22100122100122
0,7215	3,66300366300365
0,722	-1,22100122100122
0,7225	-6,10500610500608
0,723	-1,22100122100122
0,7235	3,66300366300365
0,724	3,66300366300365
0,7245	3,66300366300365
0,725	3,66300366300365
0,7255	3,66300366300365
0,726	3,66300366300365
0,7265	3,66300366300365
0,727	3,66300366300365
0,7275	3,66300366300365
0,728	3,66300366300365
0,7285	8,54700854700852
0,729	8,54700854700852
0,7295	3,66300366300365
0,73	3,66300366300365
0,7305	3,66300366300365
0,731	3,66300366300365
0,7315	3,66300366300365
0,732	3,66300366300365
0,7325	3,66300366300365
0,733	3,66300366300365
0,7335	3,66300366300365
0,734	3,66300366300365
0,7345	3,66300366300365
0,735	-1,22100122100122
0,7355	-1,22100122100122
0,736	-1,22100122100122
0,7365	3,66300366300365
0,737	3,66300366300365
0,7375	8,54700854700852
0,738	18,3150183150183
0,7385	18,3150183150183
0,739	18,3150183150183
0,7395	8,54700854700852
0,74	3,66300366300365
0,7405	8,54700854700852
0,741	3,66300366300365
0,7415	3,66300366300365
0,742	3,66300366300365
0,7425	3,66300366300365
0,743	-1,22100122100122
0,7435	-1,22100122100122
0,744	-1,22100122100122
0,7445	3,66300366300365
0,745	-1,22100122100122
0,7455	3,66300366300365
0,746	-1,22100122100122
0,7465	-1,22100122100122
0,747	3,66300366300365
0,7475	3,66300366300365
0,748	3,66300366300365
0,7485	3,66300366300365
0,749	3,66300366300365
0,7495	3,66300366300365
0,75	3,66300366300365
0,7505	3,66300366300365
0,751	8,54700854700852
0,7515	8,54700854700852
0,752	8,54700854700852
0,7525	8,54700854700852
0,753	8,54700854700852
0,7535	3,66300366300365
0,754	-1,22100122100122
0,7545	-1,22100122100122
0,755	3,66300366300365
0,7555	-1,22100122100122
0,756	3,66300366300365
0,7565	-1,22100122100122
0,757	3,66300366300365
0,7575	3,66300366300365
0,758	3,66300366300365
0,7585	8,54700854700852
0,759	13,4310134310134
0,7595	18,3150183150183
0,76	13,4310134310134
0,7605	8,54700854700852
0,761	8,54700854700852
0,7615	3,66300366300365
0,762	3,66300366300365
0,7625	3,66300366300365
0,763	3,66300366300365
0,7635	3,66300366300365
0,764	-1,22100122100122
0,7645	3,66300366300365
0,765	-1,22100122100122
0,7655	-1,22100122100122
0,766	-1,22100122100122
0,7665	-1,22100122100122
0,767	-1,22100122100122
0,7675	-1,22100122100122
0,768	3,66300366300365
0,7685	3,66300366300365
0,769	3,66300366300365
0,7695	3,66300366300365
0,77	3,66300366300365
0,7705	3,66300366300365
0,771	3,66300366300365
0,7715	3,66300366300365
0,772	3,66300366300365
0,7725	3,66300366300365
0,773	3,66300366300365
0,7735	3,66300366300365
0,774	3,66300366300365
0,7745	8,54700854700852
0,775	8,54700854700852
0,7755	3,66300366300365
0,776	3,66300366300365
0,7765	3,66300366300365
0,777	-1,22100122100122
0,7775	-6,10500610500608
0,778	-6,10500610500608
0,7785	-1,22100122100122
0,779	-1,22100122100122
0,7795	3,66300366300365
0,78	8,54700854700852
0,7805	8,54700854700852
0,781	3,66300366300365
0,7815	3,66300366300365
0,782	8,54700854700852
0,7825	8,54700854700852
0,783	13,4310134310134
0,7835	8,54700854700852
0,784	8,54700854700852
0,7845	3,66300366300365
0,785	3,66300366300365
0,7855	3,66300366300365
0,786	-1,22100122100122
0,7865	-1,22100122100122
0,787	3,66300366300365
0,7875	3,66300366300365
0,788	-1,22100122100122
0,7885	3,66300366300365
0,789	3,66300366300365
0,7895	3,66300366300365
0,79	8,54700854700852
0,7905	8,54700854700852
0,791	8,54700854700852
0,7915	13,4310134310134
0,792	13,4310134310134
0,7925	8,54700854700852
0,793	3,66300366300365
0,7935	-6,10500610500608
0,794	-10,989010989011
0,7945	-15,8730158730158
0,795	-15,8730158730158
0,7955	-10,989010989011
0,796	-10,989010989011
0,7965	-10,989010989011
0,797	13,4310134310134
0,7975	32,9670329670329
0,798	42,7350427350426
0,7985	47,6190476190475
0,799	37,8510378510377
0,7995	23,1990231990231
0,8	13,4310134310134
0,8005	3,66300366300365
0,801	3,66300366300365
0,8015	3,66300366300365
0,802	3,66300366300365
0,8025	3,66300366300365
0,803	3,66300366300365
0,8035	-10,989010989011
0,804	-10,989010989011
0,8045	-15,8730158730158
0,805	-10,989010989011
0,8055	-6,10500610500608
0,806	-6,10500610500608
0,8065	-6,10500610500608
0,807	-1,22100122100122
0,8075	-1,22100122100122
0,808	-1,22100122100122
0,8085	3,66300366300365
0,809	3,66300366300365
0,8095	3,66300366300365
0,81	8,54700854700852
0,8105	8,54700854700852
0,811	8,54700854700852
0,8115	8,54700854700852
0,812	3,66300366300365
0,8125	3,66300366300365
0,813	8,54700854700852
0,8135	3,66300366300365
0,814	3,66300366300365
0,8145	8,54700854700852
0,815	8,54700854700852
0,8155	3,66300366300365
0,816	3,66300366300365
0,8165	3,66300366300365
0,817	3,66300366300365
0,8175	3,66300366300365
0,818	-1,22100122100122
0,8185	-1,22100122100122
0,819	3,66300366300365
0,8195	3,66300366300365
0,82	3,66300366300365
0,8205	3,66300366300365
0,821	8,54700854700852
0,8215	8,54700854700852
0,822	8,54700854700852
0,8225	8,54700854700852
0,823	8,54700854700852
0,8235	8,54700854700852
0,824	3,66300366300365
0,8245	3,66300366300365
0,825	3,66300366300365
0,8255	-1,22100122100122
0,826	-1,22100122100122
0,8265	-1,22100122100122
0,827	-6,10500610500608
0,8275	-1,22100122100122
0,828	3,66300366300365
0,8285	3,66300366300365
0,829	3,66300366300365
0,8295	-1,22100122100122
0,83	-1,22100122100122
0,8305	-1,22100122100122
0,831	3,66300366300365
0,8315	3,66300366300365
0,832	3,66300366300365
0,8325	3,66300366300365
0,833	3,66300366300365
0,8335	8,54700854700852
0,834	8,54700854700852
0,8345	8,54700854700852
0,835	3,66300366300365
0,8355	8,54700854700852
0,836	3,66300366300365
0,8365	3,66300366300365
0,837	3,66300366300365
0,8375	3,66300366300365
0,838	8,54700854700852
0,8385	8,54700854700852
0,839	18,3150183150183
0,8395	23,1990231990231
0,84	23,1990231990231
0,8405	18,3150183150183
0,841	13,4310134310134
0,8415	8,54700854700852
0,842	8,54700854700852
0,8425	3,66300366300365
0,843	-1,22100122100122
0,8435	-1,22100122100122
0,844	-1,22100122100122
0,8445	-6,10500610500608
0,845	-1,22100122100122
0,8455	-1,22100122100122
0,846	-1,22100122100122
0,8465	-1,22100122100122
0,847	-1,22100122100122
0,8475	3,66300366300365
0,848	3,66300366300365
0,8485	3,66300366300365
0,849	3,66300366300365
0,8495	3,66300366300365
0,85	3,66300366300365
0,8505	3,66300366300365
0,851	-1,22100122100122
0,8515	-6,10500610500608
0,852	-6,10500610500608
0,8525	-1,22100122100122
0,853	-1,22100122100122
0,8535	-1,22100122100122
0,854	3,66300366300365
0,8545	8,54700854700852
0,855	18,3150183150183
0,8555	18,3150183150183
0,856	8,54700854700852
0,8565	3,66300366300365
0,857	-1,22100122100122
0,8575	-1,22100122100122
0,858	3,66300366300365
0,8585	3,66300366300365
0,859	8,54700854700852
0,8595	3,66300366300365
0,86	3,66300366300365
0,8605	3,66300366300365
0,861	3,66300366300365
0,8615	-1,22100122100122
0,862	-6,10500610500608
0,8625	-6,10500610500608
0,863	-1,22100122100122
0,8635	-1,22100122100122
0,864	3,66300366300365
0,8645	3,66300366300365
0,865	3,66300366300365
0,8655	8,54700854700852
0,866	8,54700854700852
0,8665	3,66300366300365
0,867	3,66300366300365
0,8675	3,66300366300365
0,868	3,66300366300365
0,8685	3,66300366300365
0,869	3,66300366300365
0,8695	3,66300366300365
0,87	3,66300366300365
0,8705	3,66300366300365
0,871	3,66300366300365
0,8715	3,66300366300365
0,872	-10,989010989011
0,8725	-15,8730158730158
0,873	-15,8730158730158
0,8735	-10,989010989011
0,874	-10,989010989011
0,8745	3,66300366300365
0,875	18,3150183150183
0,8755	37,8510378510377
0,876	42,7350427350426
0,8765	47,6190476190475
0,877	42,7350427350426
0,8775	32,9670329670329
0,878	23,1990231990231
0,8785	18,3150183150183
0,879	13,4310134310134
0,8795	8,54700854700852
0,88	8,54700854700852
0,8805	3,66300366300365
0,881	-1,22100122100122
0,8815	-1,22100122100122
0,882	-6,10500610500608
0,8825	-6,10500610500608
0,883	-6,10500610500608
0,8835	-6,10500610500608
0,884	-10,989010989011
0,8845	-6,10500610500608
0,885	-10,989010989011
0,8855	-6,10500610500608
0,886	-1,22100122100122
0,8865	-1,22100122100122
0,887	-6,10500610500608
0,8875	-6,10500610500608
0,888	-6,10500610500608
0,8885	-1,22100122100122
0,889	8,54700854700852
0,8895	3,66300366300365
0,89	8,54700854700852
0,8905	8,54700854700852
0,891	3,66300366300365
0,8915	-1,22100122100122
0,892	-1,22100122100122
0,8925	-1,22100122100122
0,893	-1,22100122100122
0,8935	-1,22100122100122
0,894	3,66300366300365
0,8945	3,66300366300365
0,895	8,54700854700852
0,8955	3,66300366300365
0,896	-1,22100122100122
0,8965	-1,22100122100122
0,897	3,66300366300365
0,8975	8,54700854700852
0,898	8,54700854700852
0,8985	3,66300366300365
0,899	-6,10500610500608
0,8995	-10,989010989011
0,9	-6,10500610500608
0,9005	3,66300366300365
0,901	3,66300366300365
0,9015	8,54700854700852
0,902	8,54700854700852
0,9025	3,66300366300365
0,903	8,54700854700852
0,9035	3,66300366300365
0,904	8,54700854700852
0,9045	8,54700854700852
0,905	3,66300366300365
0,9055	3,66300366300365
0,906	3,66300366300365
0,9065	3,66300366300365
0,907	-1,22100122100122
0,9075	-1,22100122100122
0,908	-1,22100122100122
0,9085	3,66300366300365
0,909	8,54700854700852
0,9095	18,3150183150183
0,91	23,1990231990231
0,9105	23,1990231990231
0,911	13,4310134310134
0,9115	3,66300366300365
0,912	3,66300366300365
0,9125	3,66300366300365
0,913	8,54700854700852
0,9135	8,54700854700852
0,914	8,54700854700852
0,9145	3,66300366300365
0,915	3,66300366300365
0,9155	-1,22100122100122
0,916	-1,22100122100122
0,9165	-1,22100122100122
0,917	3,66300366300365
0,9175	3,66300366300365
0,918	3,66300366300365
0,9185	8,54700854700852
0,919	8,54700854700852
0,9195	3,66300366300365
0,92	-1,22100122100122
0,9205	3,66300366300365
0,921	-1,22100122100122
0,9215	3,66300366300365
0,922	3,66300366300365
0,9225	3,66300366300365
0,923	3,66300366300365
0,9235	-1,22100122100122
0,924	3,66300366300365
0,9245	3,66300366300365
0,925	3,66300366300365
0,9255	3,66300366300365
0,926	3,66300366300365
0,9265	-1,22100122100122
0,927	3,66300366300365
0,9275	3,66300366300365
0,928	8,54700854700852
0,9285	3,66300366300365
0,929	3,66300366300365
0,9295	3,66300366300365
0,93	3,66300366300365
0,9305	3,66300366300365
0,931	3,66300366300365
0,9315	3,66300366300365
0,932	3,66300366300365
0,9325	3,66300366300365
0,933	3,66300366300365
0,9335	8,54700854700852
0,934	3,66300366300365
0,9345	8,54700854700852
0,935	8,54700854700852
0,9355	3,66300366300365
0,936	3,66300366300365
0,9365	3,66300366300365
0,937	3,66300366300365
0,9375	3,66300366300365
0,938	3,66300366300365
0,9385	-1,22100122100122
0,939	-1,22100122100122
0,9395	-1,22100122100122
0,94	-1,22100122100122
0,9405	-1,22100122100122
0,941	-1,22100122100122
0,9415	3,66300366300365
0,942	-1,22100122100122
0,9425	3,66300366300365
0,943	3,66300366300365
0,9435	3,66300366300365
0,944	3,66300366300365
0,9445	8,54700854700852
0,945	3,66300366300365
0,9455	3,66300366300365
0,946	3,66300366300365
0,9465	3,66300366300365
0,947	3,66300366300365
0,9475	3,66300366300365
0,948	8,54700854700852
0,9485	8,54700854700852
0,949	13,4310134310134
0,9495	8,54700854700852
0,95	8,54700854700852
0,9505	3,66300366300365
0,951	3,66300366300365
0,9515	-1,22100122100122
0,952	-1,22100122100122
0,9525	-1,22100122100122
0,953	3,66300366300365
0,9535	3,66300366300365
0,954	3,66300366300365
0,9545	3,66300366300365
0,955	3,66300366300365
0,9555	3,66300366300365
0,956	3,66300366300365
0,9565	8,54700854700852
0,957	8,54700854700852
0,9575	3,66300366300365
0,958	3,66300366300365
0,9585	3,66300366300365
0,959	3,66300366300365
0,9595	3,66300366300365
0,96	3,66300366300365
0,9605	3,66300366300365
0,961	3,66300366300365
0,9615	3,66300366300365
0,962	3,66300366300365
0,9625	3,66300366300365
0,963	3,66300366300365
0,9635	3,66300366300365
0,964	3,66300366300365
0,9645	3,66300366300365
0,965	3,66300366300365
0,9655	3,66300366300365
0,966	3,66300366300365
0,9665	3,66300366300365
0,967	3,66300366300365
0,9675	3,66300366300365
0,968	3,66300366300365
0,9685	3,66300366300365
0,969	3,66300366300365
0,9695	3,66300366300365
0,97	3,66300366300365
0,9705	3,66300366300365
0,971	3,66300366300365
0,9715	3,66300366300365
0,972	3,66300366300365
0,9725	3,66300366300365
0,973	8,54700854700852
0,9735	3,66300366300365
0,974	3,66300366300365
0,9745	3,66300366300365
0,975	3,66300366300365
0,9755	3,66300366300365
0,976	3,66300366300365
0,9765	3,66300366300365
0,977	3,66300366300365
0,9775	3,66300366300365
0,978	3,66300366300365
0,9785	3,66300366300365
0,979	3,66300366300365
0,9795	3,66300366300365
0,98	3,66300366300365
0,9805	3,66300366300365
0,981	3,66300366300365
0,9815	3,66300366300365
0,982	3,66300366300365
0,9825	3,66300366300365
0,983	3,66300366300365
0,9835	3,66300366300365
0,984	3,66300366300365
0,9845	-1,22100122100122
0,985	3,66300366300365
0,9855	3,66300366300365
0,986	3,66300366300365
0,9865	3,66300366300365
0,987	3,66300366300365
0,9875	3,66300366300365
0,988	3,66300366300365
0,9885	3,66300366300365
0,989	3,66300366300365
0,9895	3,66300366300365
0,99	3,66300366300365
0,9905	3,66300366300365
0,991	3,66300366300365
0,9915	-6,10500610500608
0,992	-10,989010989011
0,9925	-20,7570207570207
0,993	-20,7570207570207
0,9935	-10,989010989011
0,994	-10,989010989011
0,9945	-1,22100122100122
0,995	23,1990231990231
0,9955	42,7350427350426
0,996	47,6190476190475
0,9965	52,5030525030523
0,997	47,6190476190475
0,9975	32,9670329670329
0,998	23,1990231990231
0,9985	18,3150183150183
0,999	18,3150183150183
0,9995	8,54700854700852
1	8,54700854700852
1,0005	-1,22100122100122
1,001	-6,10500610500608
1,0015	-6,10500610500608
1,002	-6,10500610500608
1,0025	-10,989010989011
1,003	-10,989010989011
1,0035	-6,10500610500608
1,004	-6,10500610500608
1,0045	-1,22100122100122
1,005	3,66300366300365
1,0055	3,66300366300365
1,006	-6,10500610500608
1,0065	-10,989010989011
1,007	-20,7570207570207
1,0075	-15,8730158730158
1,008	-10,989010989011
1,0085	-6,10500610500608
1,009	-1,22100122100122
1,0095	3,66300366300365
1,01	3,66300366300365
1,0105	-1,22100122100122
1,011	3,66300366300365
1,0115	8,54700854700852
1,012	8,54700854700852
1,0125	3,66300366300365
1,013	3,66300366300365
1,0135	3,66300366300365
1,014	3,66300366300365
1,0145	8,54700854700852
1,015	8,54700854700852
1,0155	8,54700854700852
1,016	8,54700854700852
1,0165	8,54700854700852
1,017	8,54700854700852
1,0175	8,54700854700852
1,018	8,54700854700852
1,0185	8,54700854700852
1,019	8,54700854700852
1,0195	3,66300366300365
1,02	3,66300366300365
1,0205	3,66300366300365
1,021	3,66300366300365
1,0215	3,66300366300365
1,022	8,54700854700852
1,0225	18,3150183150183
1,023	23,1990231990231
1,0235	18,3150183150183
1,024	8,54700854700852
1,0245	3,66300366300365
1,025	3,66300366300365
1,0255	3,66300366300365
1,026	3,66300366300365
1,0265	-6,10500610500608
1,027	-6,10500610500608
1,0275	-6,10500610500608
1,028	-6,10500610500608
1,0285	-1,22100122100122
1,029	-1,22100122100122
1,0295	-1,22100122100122
1,03	3,66300366300365
1,0305	3,66300366300365
1,031	3,66300366300365
1,0315	8,54700854700852
1,032	8,54700854700852
1,0325	8,54700854700852
1,033	3,66300366300365
1,0335	3,66300366300365
1,034	3,66300366300365
1,0345	8,54700854700852
1,035	8,54700854700852
1,0355	8,54700854700852
1,036	8,54700854700852
1,0365	8,54700854700852
1,037	3,66300366300365
1,0375	3,66300366300365
1,038	3,66300366300365
1,0385	3,66300366300365
1,039	3,66300366300365
1,0395	3,66300366300365
1,04	-1,22100122100122
1,0405	-1,22100122100122
1,041	-1,22100122100122
1,0415	-1,22100122100122
1,042	-1,22100122100122
1,0425	3,66300366300365
1,043	3,66300366300365
1,0435	3,66300366300365
1,044	3,66300366300365
1,0445	3,66300366300365
1,045	3,66300366300365
1,0455	3,66300366300365
1,046	3,66300366300365
1,0465	8,54700854700852
1,047	8,54700854700852
1,0475	8,54700854700852
1,048	8,54700854700852
1,0485	3,66300366300365
1,049	3,66300366300365
1,0495	3,66300366300365
1,05	3,66300366300365
1,0505	3,66300366300365
1,051	3,66300366300365
1,0515	3,66300366300365
1,052	3,66300366300365
1,0525	3,66300366300365
1,053	8,54700854700852
1,0535	8,54700854700852
1,054	3,66300366300365
1,0545	3,66300366300365
1,055	-1,22100122100122
1,0555	-6,10500610500608
1,056	-6,10500610500608
1,0565	-1,22100122100122
1,057	3,66300366300365
1,0575	3,66300366300365
1,058	3,66300366300365
1,0585	3,66300366300365
1,059	-1,22100122100122
1,0595	3,66300366300365
1,06	3,66300366300365
1,0605	3,66300366300365
1,061	3,66300366300365
1,0615	3,66300366300365
1,062	3,66300366300365
1,0625	3,66300366300365
1,063	3,66300366300365
1,0635	3,66300366300365
1,064	3,66300366300365
1,0645	8,54700854700852
1,065	8,54700854700852
1,0655	13,4310134310134
1,066	13,4310134310134
1,0665	13,4310134310134
1,067	13,4310134310134
1,0675	8,54700854700852
1,068	8,54700854700852
1,0685	3,66300366300365
1,069	3,66300366300365
1,0695	3,66300366300365
1,07	3,66300366300365
1,0705	-1,22100122100122
1,071	-1,22100122100122
1,0715	-10,989010989011
1,072	-15,8730158730158
1,0725	-20,7570207570207
1,073	-20,7570207570207
1,0735	-15,8730158730158
1,074	-10,989010989011
1,0745	-6,10500610500608
1,075	18,3150183150183
1,0755	37,8510378510377
1,076	37,8510378510377
1,0765	42,7350427350426
1,077	32,9670329670329
1,0775	23,1990231990231
1,078	18,3150183150183
1,0785	13,4310134310134
1,079	23,1990231990231
1,0795	23,1990231990231
1,08	18,3150183150183
1,0805	8,54700854700852
1,081	3,66300366300365
1,0815	-1,22100122100122
1,082	-6,10500610500608
1,0825	-6,10500610500608
1,083	-6,10500610500608
1,0835	-6,10500610500608
1,084	-10,989010989011
1,0845	-10,989010989011
1,085	-10,989010989011
1,0855	-6,10500610500608
1,086	-6,10500610500608
1,0865	-10,989010989011
1,087	-6,10500610500608
1,0875	-6,10500610500608
1,088	-1,22100122100122
1,0885	-1,22100122100122
1,089	3,66300366300365
1,0895	3,66300366300365
1,09	3,66300366300365
1,0905	3,66300366300365
1,091	3,66300366300365
1,0915	8,54700854700852
1,092	8,54700854700852
1,0925	3,66300366300365
1,093	3,66300366300365
1,0935	3,66300366300365
1,094	3,66300366300365
1,0945	3,66300366300365
1,095	3,66300366300365
1,0955	-1,22100122100122
1,096	-1,22100122100122
1,0965	-1,22100122100122
1,097	3,66300366300365
1,0975	-1,22100122100122
1,098	-1,22100122100122
1,0985	3,66300366300365
1,099	8,54700854700852
1,0995	18,3150183150183
1,1	8,54700854700852
1,1005	-6,10500610500608
1,101	-6,10500610500608
1,1015	-6,10500610500608
1,102	3,66300366300365
1,1025	3,66300366300365
1,103	3,66300366300365
1,1035	3,66300366300365
1,104	3,66300366300365
1,1045	8,54700854700852
1,105	3,66300366300365
1,1055	8,54700854700852
1,106	8,54700854700852
1,1065	8,54700854700852
1,107	8,54700854700852
1,1075	8,54700854700852
1,108	8,54700854700852
1,1085	8,54700854700852
1,109	8,54700854700852
1,1095	8,54700854700852
1,11	8,54700854700852
1,1105	3,66300366300365
1,111	3,66300366300365
1,1115	-1,22100122100122
1,112	-1,22100122100122
1,1125	-1,22100122100122
1,113	3,66300366300365
1,1135	3,66300366300365
1,114	3,66300366300365
1,1145	8,54700854700852
1,115	18,3150183150183
1,1155	18,3150183150183
1,116	13,4310134310134
1,1165	8,54700854700852
1,117	8,54700854700852
1,1175	3,66300366300365
1,118	8,54700854700852
1,1185	8,54700854700852
1,119	3,66300366300365
1,1195	3,66300366300365
1,12	3,66300366300365
1,1205	3,66300366300365
1,121	3,66300366300365
1,1215	3,66300366300365
1,122	-1,22100122100122
1,1225	-1,22100122100122
1,123	-1,22100122100122
1,1235	-1,22100122100122
1,124	-1,22100122100122
1,1245	3,66300366300365
1,125	3,66300366300365
1,1255	3,66300366300365
1,126	8,54700854700852
1,1265	8,54700854700852
1,127	13,4310134310134
1,1275	8,54700854700852
1,128	3,66300366300365
1,1285	3,66300366300365
1,129	3,66300366300365
1,1295	-1,22100122100122
1,13	3,66300366300365
1,1305	-1,22100122100122
1,131	-1,22100122100122
1,1315	-1,22100122100122
1,132	-1,22100122100122
1,1325	3,66300366300365
1,133	3,66300366300365
1,1335	3,66300366300365
1,134	3,66300366300365
1,1345	8,54700854700852
1,135	8,54700854700852
1,1355	8,54700854700852
1,136	8,54700854700852
1,1365	3,66300366300365
1,137	3,66300366300365
1,1375	3,66300366300365
1,138	3,66300366300365
1,1385	-1,22100122100122
1,139	-1,22100122100122
1,1395	-6,10500610500608
1,14	-6,10500610500608
1,1405	-6,10500610500608
1,141	-1,22100122100122
1,1415	3,66300366300365
1,142	3,66300366300365
1,1425	3,66300366300365
1,143	3,66300366300365
1,1435	3,66300366300365
1,144	3,66300366300365
1,1445	3,66300366300365
1,145	3,66300366300365
1,1455	8,54700854700852
1,146	8,54700854700852
1,1465	8,54700854700852
1,147	8,54700854700852
1,1475	8,54700854700852
1,148	3,66300366300365
1,1485	8,54700854700852
1,149	8,54700854700852
1,1495	13,4310134310134
1,15	13,4310134310134
1,1505	18,3150183150183
1,151	8,54700854700852
1,1515	-6,10500610500608
1,152	-10,989010989011
1,1525	-15,8730158730158
1,153	-10,989010989011
1,1535	-10,989010989011
1,154	-6,10500610500608
1,1545	8,54700854700852
1,155	23,1990231990231
1,1555	28,083028083028
1,156	28,083028083028
1,1565	28,083028083028
1,157	23,1990231990231
1,1575	18,3150183150183
1,158	18,3150183150183
1,1585	18,3150183150183
1,159	18,3150183150183
1,1595	18,3150183150183
1,16	8,54700854700852
1,1605	3,66300366300365
1,161	3,66300366300365
1,1615	-6,10500610500608
1,162	-6,10500610500608
1,1625	-6,10500610500608
1,163	-6,10500610500608
1,1635	-10,989010989011
1,164	-10,989010989011
1,1645	-10,989010989011
1,165	-10,989010989011
1,1655	-10,989010989011
1,166	-6,10500610500608
1,1665	-6,10500610500608
1,167	-1,22100122100122
1,1675	-1,22100122100122
1,168	-1,22100122100122
1,1685	3,66300366300365
1,169	3,66300366300365
1,1695	3,66300366300365
1,17	3,66300366300365
1,1705	3,66300366300365
1,171	3,66300366300365
1,1715	3,66300366300365
1,172	3,66300366300365
1,1725	3,66300366300365
1,173	3,66300366300365
1,1735	8,54700854700852
1,174	8,54700854700852
1,1745	3,66300366300365
1,175	3,66300366300365
1,1755	3,66300366300365
1,176	3,66300366300365
1,1765	3,66300366300365
1,177	3,66300366300365
1,1775	3,66300366300365
1,178	3,66300366300365
1,1785	3,66300366300365
1,179	8,54700854700852
1,1795	8,54700854700852
1,18	8,54700854700852
1,1805	8,54700854700852
1,181	8,54700854700852
1,1815	8,54700854700852
1,182	8,54700854700852
1,1825	8,54700854700852
1,183	8,54700854700852
1,1835	8,54700854700852
1,184	8,54700854700852
1,1845	3,66300366300365
1,185	3,66300366300365
1,1855	3,66300366300365
1,186	-1,22100122100122
1,1865	-1,22100122100122
1,187	-1,22100122100122
1,1875	3,66300366300365
1,188	-1,22100122100122
1,1885	-6,10500610500608
1,189	-1,22100122100122
1,1895	3,66300366300365
1,19	3,66300366300365
1,1905	3,66300366300365
1,191	8,54700854700852
1,1915	8,54700854700852
1,192	8,54700854700852
1,1925	8,54700854700852
1,193	8,54700854700852
1,1935	8,54700854700852
1,194	8,54700854700852
1,1945	3,66300366300365
1,195	3,66300366300365
1,1955	3,66300366300365
1,196	3,66300366300365
1,1965	3,66300366300365
1,197	3,66300366300365
1,1975	3,66300366300365
1,198	8,54700854700852
1,1985	13,4310134310134
1,199	8,54700854700852
1,1995	3,66300366300365
1,2	3,66300366300365
1,2005	8,54700854700852
1,201	8,54700854700852
1,2015	18,3150183150183
1,202	18,3150183150183
1,2025	8,54700854700852
1,203	-1,22100122100122
1,2035	-10,989010989011
1,204	-6,10500610500608
1,2045	-6,10500610500608
1,205	3,66300366300365
1,2055	3,66300366300365
1,206	3,66300366300365
1,2065	3,66300366300365
1,207	3,66300366300365
1,2075	-1,22100122100122
1,208	3,66300366300365
1,2085	3,66300366300365
1,209	3,66300366300365
1,2095	3,66300366300365
1,21	3,66300366300365
1,2105	3,66300366300365
1,211	3,66300366300365
1,2115	3,66300366300365
1,212	3,66300366300365
1,2125	3,66300366300365
1,213	-1,22100122100122
1,2135	-6,10500610500608
1,214	-1,22100122100122
1,2145	-1,22100122100122
1,215	3,66300366300365
1,2155	3,66300366300365
1,216	8,54700854700852
1,2165	3,66300366300365
1,217	3,66300366300365
1,2175	3,66300366300365
1,218	3,66300366300365
1,2185	3,66300366300365
1,219	8,54700854700852
1,2195	23,1990231990231
1,22	23,1990231990231
1,2205	23,1990231990231
1,221	18,3150183150183
1,2215	8,54700854700852
1,222	8,54700854700852
1,2225	3,66300366300365
1,223	3,66300366300365
1,2235	-1,22100122100122
1,224	-1,22100122100122
1,2245	-1,22100122100122
1,225	-6,10500610500608
1,2255	-1,22100122100122
1,226	-1,22100122100122
1,2265	-1,22100122100122
1,227	-1,22100122100122
1,2275	-1,22100122100122
1,228	-1,22100122100122
1,2285	-1,22100122100122
1,229	-1,22100122100122
1,2295	3,66300366300365
1,23	3,66300366300365
1,2305	3,66300366300365
1,231	3,66300366300365
1,2315	3,66300366300365
1,232	3,66300366300365
1,2325	3,66300366300365
1,233	3,66300366300365
1,2335	3,66300366300365
1,234	3,66300366300365
1,2345	3,66300366300365
1,235	3,66300366300365
1,2355	8,54700854700852
1,236	8,54700854700852
1,2365	3,66300366300365
1,237	3,66300366300365
1,2375	8,54700854700852
1,238	8,54700854700852
1,2385	8,54700854700852
1,239	8,54700854700852
1,2395	3,66300366300365
1,24	-1,22100122100122
1,2405	-1,22100122100122
1,241	-10,989010989011
1,2415	-20,7570207570207
1,242	-25,6410256410256
1,2425	-20,7570207570207
1,243	-10,989010989011
1,2435	-6,10500610500608
1,244	8,54700854700852
1,2445	28,083028083028
1,245	42,7350427350426
1,2455	37,8510378510377
1,246	37,8510378510377
1,2465	28,083028083028
1,247	18,3150183150183
1,2475	8,54700854700852
1,248	3,66300366300365
1,2485	3,66300366300365
1,249	3,66300366300365
1,2495	3,66300366300365
1,25	3,66300366300365
1,2505	3,66300366300365
1,251	-1,22100122100122
1,2515	-1,22100122100122
1,252	-6,10500610500608
1,2525	-1,22100122100122
1,253	-1,22100122100122
1,2535	-1,22100122100122
1,254	-6,10500610500608
1,2545	-6,10500610500608
1,255	-6,10500610500608
1,2555	-1,22100122100122
1,256	-1,22100122100122
1,2565	8,54700854700852
1,257	13,4310134310134
1,2575	8,54700854700852
1,258	8,54700854700852
1,2585	-1,22100122100122
1,259	-1,22100122100122
1,2595	-1,22100122100122
1,26	3,66300366300365
1,2605	3,66300366300365
1,261	3,66300366300365
1,2615	3,66300366300365
1,262	-1,22100122100122
1,2625	-1,22100122100122
1,263	-6,10500610500608
1,2635	-6,10500610500608
1,264	-6,10500610500608
1,2645	-6,10500610500608
1,265	-1,22100122100122
1,2655	3,66300366300365
1,266	3,66300366300365
1,2665	8,54700854700852
1,267	3,66300366300365
1,2675	8,54700854700852
1,268	8,54700854700852
1,2685	8,54700854700852
1,269	8,54700854700852
1,2695	8,54700854700852
1,27	8,54700854700852
1,2705	8,54700854700852
1,271	3,66300366300365
1,2715	3,66300366300365
1,272	3,66300366300365
1,2725	3,66300366300365
1,273	3,66300366300365
1,2735	3,66300366300365
1,274	3,66300366300365
1,2745	3,66300366300365
1,275	3,66300366300365
1,2755	3,66300366300365
1,276	3,66300366300365
1,2765	8,54700854700852
1,277	3,66300366300365
1,2775	8,54700854700852
1,278	8,54700854700852
1,2785	3,66300366300365
1,279	3,66300366300365
1,2795	3,66300366300365
1,28	3,66300366300365
1,2805	3,66300366300365
1,281	3,66300366300365
1,2815	3,66300366300365
1,282	3,66300366300365
1,2825	3,66300366300365
1,283	3,66300366300365
1,2835	8,54700854700852
1,284	3,66300366300365
1,2845	3,66300366300365
1,285	3,66300366300365
1,2855	-1,22100122100122
1,286	-1,22100122100122
1,2865	3,66300366300365
1,287	3,66300366300365
1,2875	18,3150183150183
1,288	18,3150183150183
1,2885	18,3150183150183
1,289	13,4310134310134
1,2895	8,54700854700852
1,29	3,66300366300365
1,2905	3,66300366300365
1,291	3,66300366300365
1,2915	3,66300366300365
1,292	8,54700854700852
1,2925	3,66300366300365
1,293	3,66300366300365
1,2935	3,66300366300365
1,294	3,66300366300365
1,2945	3,66300366300365
1,295	3,66300366300365
1,2955	-6,10500610500608
1,296	-10,989010989011
1,2965	-10,989010989011
1,297	-6,10500610500608
1,2975	-6,10500610500608
1,298	3,66300366300365
1,2985	3,66300366300365
1,299	-1,22100122100122
1,2995	3,66300366300365
1,3	3,66300366300365
1,3005	3,66300366300365
1,301	3,66300366300365
1,3015	3,66300366300365
1,302	3,66300366300365
1,3025	13,4310134310134
1,303	18,3150183150183
1,3035	18,3150183150183
1,304	23,1990231990231
1,3045	8,54700854700852
1,305	-10,989010989011
1,3055	-20,7570207570207
1,306	-25,6410256410256
1,3065	-15,8730158730158
1,307	-10,989010989011
1,3075	-1,22100122100122
1,308	23,1990231990231
1,3085	37,8510378510377
1,309	42,7350427350426
1,3095	42,7350427350426
1,31	28,083028083028
1,3105	23,1990231990231
1,311	18,3150183150183
1,3115	13,4310134310134
1,312	8,54700854700852
1,3125	8,54700854700852
1,313	8,54700854700852
1,3135	3,66300366300365
1,314	8,54700854700852
1,3145	3,66300366300365
1,315	-1,22100122100122
1,3155	-6,10500610500608
1,316	-10,989010989011
1,3165	-10,989010989011
1,317	-10,989010989011
1,3175	-10,989010989011
1,318	-15,8730158730158
1,3185	-15,8730158730158
1,319	-10,989010989011
1,3195	-6,10500610500608
1,32	-1,22100122100122
1,3205	-1,22100122100122
1,321	-1,22100122100122
1,3215	-1,22100122100122
1,322	3,66300366300365
1,3225	3,66300366300365
1,323	3,66300366300365
1,3235	3,66300366300365
1,324	3,66300366300365
1,3245	-1,22100122100122
1,325	-6,10500610500608
1,3255	3,66300366300365
1,326	3,66300366300365
1,3265	8,54700854700852
1,327	8,54700854700852
1,3275	8,54700854700852
1,328	8,54700854700852
1,3285	8,54700854700852
1,329	13,4310134310134
1,3295	13,4310134310134
1,33	13,4310134310134
1,3305	13,4310134310134
1,331	8,54700854700852
1,3315	8,54700854700852
1,332	8,54700854700852
1,3325	8,54700854700852
1,333	8,54700854700852
1,3335	8,54700854700852
1,334	3,66300366300365
1,3345	8,54700854700852
1,335	8,54700854700852
1,3355	8,54700854700852
1,336	3,66300366300365
1,3365	3,66300366300365
1,337	3,66300366300365
1,3375	-1,22100122100122
1,338	-6,10500610500608
1,3385	-10,989010989011
1,339	-6,10500610500608
1,3395	-6,10500610500608
1,34	3,66300366300365
1,3405	3,66300366300365
1,341	3,66300366300365
1,3415	3,66300366300365
1,342	3,66300366300365
1,3425	3,66300366300365
1,343	8,54700854700852
1,3435	8,54700854700852
1,344	3,66300366300365
1,3445	3,66300366300365
1,345	3,66300366300365
1,3455	3,66300366300365
1,346	3,66300366300365
1,3465	3,66300366300365
1,347	3,66300366300365
1,3475	3,66300366300365
1,348	3,66300366300365
1,3485	3,66300366300365
1,349	3,66300366300365
1,3495	3,66300366300365
1,35	3,66300366300365
1,3505	3,66300366300365
1,351	8,54700854700852
1,3515	8,54700854700852
1,352	8,54700854700852
1,3525	8,54700854700852
1,353	8,54700854700852
1,3535	8,54700854700852
1,354	8,54700854700852
1,3545	3,66300366300365
1,355	3,66300366300365
1,3555	8,54700854700852
1,356	8,54700854700852
1,3565	8,54700854700852
1,357	3,66300366300365
1,3575	3,66300366300365
1,358	3,66300366300365
1,3585	3,66300366300365
1,359	-1,22100122100122
1,3595	3,66300366300365
1,36	3,66300366300365
1,3605	3,66300366300365
1,361	3,66300366300365
1,3615	8,54700854700852
1,362	8,54700854700852
1,3625	3,66300366300365
1,363	3,66300366300365
1,3635	3,66300366300365
1,364	3,66300366300365
1,3645	3,66300366300365
1,365	3,66300366300365
1,3655	3,66300366300365
1,366	3,66300366300365
1,3665	3,66300366300365
1,367	3,66300366300365
1,3675	3,66300366300365
1,368	3,66300366300365
1,3685	3,66300366300365
1,369	3,66300366300365
1,3695	3,66300366300365
1,37	-6,10500610500608
1,3705	-6,10500610500608
1,371	-6,10500610500608
1,3715	-6,10500610500608
1,372	-1,22100122100122
1,3725	3,66300366300365
1,373	13,4310134310134
1,3735	13,4310134310134
1,374	8,54700854700852
1,3745	8,54700854700852
1,375	8,54700854700852
1,3755	8,54700854700852
1,376	8,54700854700852
1,3765	3,66300366300365
1,377	3,66300366300365
1,3775	3,66300366300365
1,378	3,66300366300365
1,3785	3,66300366300365
1,379	3,66300366300365
1,3795	-1,22100122100122
1,38	-1,22100122100122
1,3805	-6,10500610500608
1,381	-6,10500610500608
1,3815	-1,22100122100122
1,382	-1,22100122100122
1,3825	-1,22100122100122
1,383	-1,22100122100122
1,3835	3,66300366300365
1,384	3,66300366300365
1,3845	3,66300366300365
1,385	3,66300366300365
1,3855	3,66300366300365
1,386	3,66300366300365
1,3865	8,54700854700852
1,387	8,54700854700852
1,3875	8,54700854700852
1,388	8,54700854700852
1,3885	3,66300366300365
1,389	8,54700854700852
1,3895	8,54700854700852
1,39	13,4310134310134
1,3905	8,54700854700852
1,391	8,54700854700852
1,3915	8,54700854700852
1,392	3,66300366300365
1,3925	3,66300366300365
1,393	3,66300366300365
1,3935	3,66300366300365
1,394	3,66300366300365
1,3945	3,66300366300365
1,395	3,66300366300365
1,3955	3,66300366300365
1,396	3,66300366300365
1,3965	3,66300366300365
1,397	3,66300366300365
1,3975	3,66300366300365
1,398	3,66300366300365
1,3985	-1,22100122100122
1,399	-6,10500610500608
1,3995	-10,989010989011
1,4	-15,8730158730158
1,4005	-20,7570207570207
1,401	-10,989010989011
1,4015	-10,989010989011
1,402	-1,22100122100122
1,4025	13,4310134310134
1,403	28,083028083028
1,4035	37,8510378510377
1,404	42,7350427350426
1,4045	37,8510378510377
1,405	28,083028083028
1,4055	18,3150183150183
1,406	13,4310134310134
1,4065	8,54700854700852
1,407	8,54700854700852
1,4075	8,54700854700852
1,408	3,66300366300365
1,4085	-1,22100122100122
1,409	-10,989010989011
1,4095	-10,989010989011
1,41	-10,989010989011
1,4105	-10,989010989011
1,411	-6,10500610500608
1,4115	-6,10500610500608
1,412	-1,22100122100122
1,4125	-1,22100122100122
1,413	-1,22100122100122
1,4135	-1,22100122100122
1,414	3,66300366300365
1,4145	3,66300366300365
1,415	3,66300366300365
1,4155	3,66300366300365
1,416	3,66300366300365
1,4165	-1,22100122100122
1,417	-6,10500610500608
1,4175	-6,10500610500608
1,418	-6,10500610500608
1,4185	3,66300366300365
1,419	3,66300366300365
1,4195	3,66300366300365
1,42	3,66300366300365
1,4205	8,54700854700852
1,421	8,54700854700852
1,4215	8,54700854700852
1,422	8,54700854700852
1,4225	3,66300366300365
1,423	3,66300366300365
1,4235	3,66300366300365
1,424	8,54700854700852
1,4245	18,3150183150183
1,425	23,1990231990231
1,4255	18,3150183150183
1,426	8,54700854700852
1,4265	3,66300366300365
1,427	-1,22100122100122
1,4275	-1,22100122100122
1,428	3,66300366300365
1,4285	3,66300366300365
1,429	-1,22100122100122
1,4295	-6,10500610500608
1,43	-10,989010989011
1,4305	-10,989010989011
1,431	-10,989010989011
1,4315	-6,10500610500608
1,432	3,66300366300365
1,4325	3,66300366300365
1,433	8,54700854700852
1,4335	8,54700854700852
1,434	13,4310134310134
1,4345	13,4310134310134
1,435	8,54700854700852
1,4355	3,66300366300365
1,436	3,66300366300365
1,4365	3,66300366300365
1,437	3,66300366300365
1,4375	3,66300366300365
1,438	3,66300366300365
1,4385	3,66300366300365
1,439	3,66300366300365
1,4395	8,54700854700852
1,44	8,54700854700852
1,4405	8,54700854700852
1,441	13,4310134310134
1,4415	8,54700854700852
1,442	13,4310134310134
1,4425	8,54700854700852
1,443	8,54700854700852
1,4435	8,54700854700852
1,444	3,66300366300365
1,4445	3,66300366300365
1,445	3,66300366300365
1,4455	3,66300366300365
1,446	3,66300366300365
1,4465	3,66300366300365
1,447	3,66300366300365
1,4475	3,66300366300365
1,448	3,66300366300365
1,4485	-1,22100122100122
1,449	3,66300366300365
1,4495	3,66300366300365
1,45	3,66300366300365
1,4505	3,66300366300365
1,451	8,54700854700852
1,4515	8,54700854700852
1,452	3,66300366300365
1,4525	3,66300366300365
1,453	3,66300366300365
1,4535	3,66300366300365
1,454	-1,22100122100122
1,4545	-1,22100122100122
1,455	-1,22100122100122
1,4555	3,66300366300365
1,456	3,66300366300365
1,4565	3,66300366300365
1,457	3,66300366300365
1,4575	3,66300366300365
1,458	3,66300366300365
1,4585	3,66300366300365
1,459	3,66300366300365
1,4595	3,66300366300365
1,46	8,54700854700852
1,4605	3,66300366300365
1,461	3,66300366300365
1,4615	3,66300366300365
1,462	8,54700854700852
1,4625	8,54700854700852
1,463	13,4310134310134
1,4635	8,54700854700852
1,464	8,54700854700852
1,4645	3,66300366300365
1,465	3,66300366300365
1,4655	3,66300366300365
1,466	-6,10500610500608
1,4665	-15,8730158730158
1,467	-25,6410256410256
1,4675	-25,6410256410256
1,468	-20,7570207570207
1,4685	-10,989010989011
1,469	3,66300366300365
1,4695	23,1990231990231
1,47	47,6190476190475
1,4705	47,6190476190475
1,471	47,6190476190475
1,4715	42,7350427350426
1,472	23,1990231990231
1,4725	8,54700854700852
1,473	3,66300366300365
1,4735	3,66300366300365
1,474	3,66300366300365
1,4745	3,66300366300365
1,475	3,66300366300365
1,4755	-6,10500610500608
1,476	-6,10500610500608
1,4765	-6,10500610500608
1,477	-10,989010989011
1,4775	-10,989010989011
1,478	-6,10500610500608
1,4785	-6,10500610500608
1,479	-6,10500610500608
1,4795	-1,22100122100122
1,48	-1,22100122100122
1,4805	-1,22100122100122
1,481	-1,22100122100122
1,4815	-1,22100122100122
1,482	3,66300366300365
1,4825	3,66300366300365
1,483	3,66300366300365
1,4835	3,66300366300365
1,484	3,66300366300365
1,4845	3,66300366300365
1,485	3,66300366300365
1,4855	3,66300366300365
1,486	3,66300366300365
1,4865	3,66300366300365
1,487	3,66300366300365
1,4875	3,66300366300365
1,488	3,66300366300365
1,4885	3,66300366300365
1,489	3,66300366300365
1,4895	8,54700854700852
1,49	8,54700854700852
1,4905	3,66300366300365
1,491	3,66300366300365
1,4915	8,54700854700852
1,492	3,66300366300365
1,4925	8,54700854700852
1,493	8,54700854700852
1,4935	3,66300366300365
1,494	8,54700854700852
1,4945	3,66300366300365
1,495	3,66300366300365
1,4955	3,66300366300365
1,496	3,66300366300365
1,4965	3,66300366300365
1,497	3,66300366300365
1,4975	3,66300366300365
1,498	3,66300366300365
1,4985	8,54700854700852
1,499	8,54700854700852
1,4995	8,54700854700852
1,5	8,54700854700852
1,5005	8,54700854700852
1,501	3,66300366300365
1,5015	3,66300366300365
1,502	-1,22100122100122
1,5025	-1,22100122100122
1,503	-1,22100122100122
1,5035	3,66300366300365
1,504	3,66300366300365
1,5045	8,54700854700852
1,505	8,54700854700852
1,5055	8,54700854700852
1,506	8,54700854700852
1,5065	8,54700854700852
1,507	8,54700854700852
1,5075	3,66300366300365
1,508	8,54700854700852
1,5085	8,54700854700852
1,509	8,54700854700852
1,5095	8,54700854700852
1,51	3,66300366300365
1,5105	3,66300366300365
1,511	-6,10500610500608
1,5115	3,66300366300365
1,512	3,66300366300365
1,5125	3,66300366300365
1,513	-1,22100122100122
1,5135	-6,10500610500608
1,514	-6,10500610500608
1,5145	-10,989010989011
1,515	-10,989010989011
1,5155	-15,8730158730158
1,516	-10,989010989011
1,5165	-10,989010989011
1,517	3,66300366300365
1,5175	3,66300366300365
1,518	3,66300366300365
1,5185	8,54700854700852
1,519	8,54700854700852
1,5195	13,4310134310134
1,52	18,3150183150183
1,5205	13,4310134310134
1,521	13,4310134310134
1,5215	13,4310134310134
1,522	13,4310134310134
1,5225	8,54700854700852
1,523	8,54700854700852
1,5235	8,54700854700852
1,524	3,66300366300365
1,5245	8,54700854700852
1,525	8,54700854700852
1,5255	13,4310134310134
1,526	8,54700854700852
1,5265	8,54700854700852
1,527	3,66300366300365
1,5275	3,66300366300365
1,528	8,54700854700852
1,5285	3,66300366300365
1,529	8,54700854700852
1,5295	3,66300366300365
1,53	3,66300366300365
1,5305	3,66300366300365
1,531	-1,22100122100122
1,5315	-6,10500610500608
1,532	-1,22100122100122
1,5325	-1,22100122100122
1,533	-1,22100122100122
1,5335	-1,22100122100122
1,534	3,66300366300365
1,5345	-1,22100122100122
1,535	-1,22100122100122
1,5355	3,66300366300365
1,536	-1,22100122100122
1,5365	-1,22100122100122
1,537	3,66300366300365
1,5375	3,66300366300365
1,538	3,66300366300365
1,5385	8,54700854700852
1,539	13,4310134310134
1,5395	18,3150183150183
1,54	18,3150183150183
1,5405	13,4310134310134
1,541	8,54700854700852
1,5415	8,54700854700852
1,542	8,54700854700852
1,5425	3,66300366300365
1,543	3,66300366300365
1,5435	-1,22100122100122
1,544	-6,10500610500608
1,5445	-1,22100122100122
1,545	3,66300366300365
1,5455	-1,22100122100122
1,546	3,66300366300365
1,5465	-1,22100122100122
1,547	-1,22100122100122
1,5475	-1,22100122100122
1,548	-1,22100122100122
1,5485	-6,10500610500608
1,549	-1,22100122100122
1,5495	-1,22100122100122
1,55	-1,22100122100122
1,5505	-1,22100122100122
1,551	3,66300366300365
1,5515	3,66300366300365
1,552	8,54700854700852
1,5525	3,66300366300365
1,553	-10,989010989011
1,5535	-20,7570207570207
1,554	-30,5250305250304
1,5545	-20,7570207570207
1,555	-10,989010989011
1,5555	-6,10500610500608
1,556	13,4310134310134
1,5565	32,9670329670329
1,557	42,7350427350426
1,5575	42,7350427350426
1,558	32,9670329670329
1,5585	28,083028083028
1,559	18,3150183150183
1,5595	18,3150183150183
1,56	18,3150183150183
1,5605	28,083028083028
1,561	23,1990231990231
1,5615	18,3150183150183
1,562	3,66300366300365
1,5625	-1,22100122100122
1,563	-6,10500610500608
1,5635	-1,22100122100122
1,564	-1,22100122100122
1,5645	-6,10500610500608
1,565	-1,22100122100122
1,5655	-6,10500610500608
1,566	-6,10500610500608
1,5665	-10,989010989011
1,567	-6,10500610500608
1,5675	-6,10500610500608
1,568	-1,22100122100122
1,5685	-1,22100122100122
1,569	3,66300366300365
1,5695	-1,22100122100122
1,57	3,66300366300365
1,5705	3,66300366300365
1,571	3,66300366300365
1,5715	-1,22100122100122
1,572	-1,22100122100122
1,5725	-1,22100122100122
1,573	-1,22100122100122
1,5735	3,66300366300365
1,574	3,66300366300365
1,5745	3,66300366300365
1,575	3,66300366300365
1,5755	-1,22100122100122
1,576	3,66300366300365
1,5765	3,66300366300365
1,577	3,66300366300365
1,5775	3,66300366300365
1,578	8,54700854700852
1,5785	8,54700854700852
1,579	8,54700854700852
1,5795	8,54700854700852
1,58	3,66300366300365
1,5805	3,66300366300365
1,581	3,66300366300365
1,5815	3,66300366300365
1,582	8,54700854700852
1,5825	8,54700854700852
1,583	8,54700854700852
1,5835	3,66300366300365
1,584	3,66300366300365
1,5845	3,66300366300365
1,585	3,66300366300365
1,5855	3,66300366300365
1,586	3,66300366300365
1,5865	3,66300366300365
1,587	8,54700854700852
1,5875	8,54700854700852
1,588	8,54700854700852
1,5885	3,66300366300365
1,589	3,66300366300365
1,5895	3,66300366300365
1,59	3,66300366300365
1,5905	3,66300366300365
1,591	3,66300366300365
1,5915	3,66300366300365
1,592	3,66300366300365
1,5925	-1,22100122100122
1,593	3,66300366300365
1,5935	3,66300366300365
1,594	-1,22100122100122
1,5945	3,66300366300365
1,595	3,66300366300365
1,5955	3,66300366300365
1,596	3,66300366300365
1,5965	3,66300366300365
1,597	8,54700854700852
1,5975	8,54700854700852
1,598	8,54700854700852
1,5985	8,54700854700852
1,599	8,54700854700852
1,5995	3,66300366300365
1,6	3,66300366300365
1,6005	-6,10500610500608
1,601	-1,22100122100122
1,6015	-1,22100122100122
1,602	3,66300366300365
1,6025	3,66300366300365
1,603	3,66300366300365
1,6035	3,66300366300365
1,604	8,54700854700852
1,6045	8,54700854700852
1,605	8,54700854700852
1,6055	3,66300366300365
1,606	3,66300366300365
1,6065	3,66300366300365
1,607	3,66300366300365
1,6075	3,66300366300365
1,608	3,66300366300365
1,6085	8,54700854700852
1,609	8,54700854700852
1,6095	8,54700854700852
1,61	8,54700854700852
1,6105	3,66300366300365
1,611	3,66300366300365
1,6115	3,66300366300365
1,612	3,66300366300365
1,6125	3,66300366300365
1,613	8,54700854700852
1,6135	3,66300366300365
1,614	-1,22100122100122
1,6145	-6,10500610500608
1,615	-1,22100122100122
1,6155	-1,22100122100122
1,616	3,66300366300365
1,6165	3,66300366300365
1,617	-1,22100122100122
1,6175	-6,10500610500608
1,618	-1,22100122100122
1,6185	3,66300366300365
1,619	-1,22100122100122
1,6195	-1,22100122100122
1,62	-1,22100122100122
1,6205	3,66300366300365
1,621	3,66300366300365
1,6215	8,54700854700852
1,622	8,54700854700852
1,6225	8,54700854700852
1,623	-6,10500610500608
1,6235	-10,989010989011
1,624	-10,989010989011
1,6245	-10,989010989011
1,625	-6,10500610500608
1,6255	3,66300366300365
1,626	18,3150183150183
1,6265	37,8510378510377
1,627	47,6190476190475
1,6275	47,6190476190475
1,628	47,6190476190475
1,6285	28,083028083028
1,629	18,3150183150183
1,6295	8,54700854700852
1,63	3,66300366300365
1,6305	3,66300366300365
1,631	3,66300366300365
1,6315	-1,22100122100122
1,632	-6,10500610500608
1,6325	-10,989010989011
1,633	-6,10500610500608
1,6335	-6,10500610500608
1,634	-6,10500610500608
1,6345	-6,10500610500608
1,635	-6,10500610500608
1,6355	-6,10500610500608
1,636	-1,22100122100122
1,6365	3,66300366300365
1,637	3,66300366300365
1,6375	-6,10500610500608
1,638	-10,989010989011
1,6385	-15,8730158730158
1,639	-10,989010989011
1,6395	-6,10500610500608
1,64	-1,22100122100122
1,6405	-1,22100122100122
1,641	-1,22100122100122
1,6415	-1,22100122100122
1,642	3,66300366300365
1,6425	3,66300366300365
1,643	3,66300366300365
1,6435	8,54700854700852
1,644	13,4310134310134
1,6445	18,3150183150183
1,645	18,3150183150183
1,6455	8,54700854700852
1,646	3,66300366300365
1,6465	-1,22100122100122
1,647	-1,22100122100122
1,6475	3,66300366300365
1,648	3,66300366300365
1,6485	-1,22100122100122
1,649	3,66300366300365
1,6495	3,66300366300365
1,65	3,66300366300365
1,6505	3,66300366300365
1,651	3,66300366300365
1,6515	3,66300366300365
1,652	3,66300366300365
1,6525	3,66300366300365
1,653	3,66300366300365
1,6535	8,54700854700852
1,654	13,4310134310134
1,6545	8,54700854700852
1,655	8,54700854700852
1,6555	8,54700854700852
1,656	3,66300366300365
1,6565	3,66300366300365
1,657	-1,22100122100122
1,6575	3,66300366300365
1,658	3,66300366300365
1,6585	3,66300366300365
1,659	3,66300366300365
1,6595	3,66300366300365
1,66	3,66300366300365
1,6605	3,66300366300365
1,661	8,54700854700852
1,6615	3,66300366300365
1,662	3,66300366300365
1,6625	3,66300366300365
1,663	3,66300366300365
1,6635	3,66300366300365
1,664	3,66300366300365
1,6645	3,66300366300365
1,665	3,66300366300365
1,6655	3,66300366300365
1,666	3,66300366300365
1,6665	3,66300366300365
1,667	8,54700854700852
1,6675	8,54700854700852
1,668	8,54700854700852
1,6685	8,54700854700852
1,669	3,66300366300365
1,6695	8,54700854700852
1,67	8,54700854700852
1,6705	3,66300366300365
1,671	3,66300366300365
1,6715	8,54700854700852
1,672	3,66300366300365
1,6725	3,66300366300365
1,673	3,66300366300365
1,6735	3,66300366300365
1,674	3,66300366300365
1,6745	3,66300366300365
1,675	3,66300366300365
1,6755	3,66300366300365
1,676	3,66300366300365
1,6765	3,66300366300365
1,677	8,54700854700852
1,6775	8,54700854700852
1,678	3,66300366300365
1,6785	8,54700854700852
1,679	3,66300366300365
1,6795	3,66300366300365
1,68	3,66300366300365
1,6805	3,66300366300365
1,681	3,66300366300365
1,6815	3,66300366300365
1,682	3,66300366300365
1,6825	-1,22100122100122
1,683	-1,22100122100122
1,6835	-6,10500610500608
1,684	-6,10500610500608
1,6845	-6,10500610500608
1,685	3,66300366300365
1,6855	3,66300366300365
1,686	8,54700854700852
1,6865	8,54700854700852
1,687	8,54700854700852
1,6875	8,54700854700852
1,688	3,66300366300365
1,6885	3,66300366300365
1,689	-1,22100122100122
1,6895	3,66300366300365
1,69	3,66300366300365
1,6905	3,66300366300365
1,691	3,66300366300365
1,6915	3,66300366300365
1,692	3,66300366300365
1,6925	3,66300366300365
1,693	3,66300366300365
1,6935	3,66300366300365
1,694	8,54700854700852
1,6945	13,4310134310134
1,695	18,3150183150183
1,6955	18,3150183150183
1,696	18,3150183150183
1,6965	8,54700854700852
1,697	8,54700854700852
1,6975	3,66300366300365
1,698	3,66300366300365
1,6985	3,66300366300365
1,699	-1,22100122100122
1,6995	-1,22100122100122
1,7	3,66300366300365
1,7005	3,66300366300365
1,701	-1,22100122100122
1,7015	-1,22100122100122
1,702	-1,22100122100122
1,7025	-1,22100122100122
1,703	-1,22100122100122
1,7035	3,66300366300365
1,704	8,54700854700852
1,7045	13,4310134310134
1,705	8,54700854700852
1,7055	-1,22100122100122
1,706	-10,989010989011
1,7065	-15,8730158730158
1,707	-15,8730158730158
1,7075	-10,989010989011
1,708	-6,10500610500608
1,7085	3,66300366300365
1,709	18,3150183150183
1,7095	37,8510378510377
1,71	42,7350427350426
1,7105	37,8510378510377
1,711	32,9670329670329
1,7115	18,3150183150183
1,712	3,66300366300365
1,7125	-1,22100122100122
1,713	-6,10500610500608
1,7135	-1,22100122100122
1,714	-1,22100122100122
1,7145	3,66300366300365
1,715	-1,22100122100122
1,7155	-1,22100122100122
1,716	-1,22100122100122
1,7165	-1,22100122100122
1,717	-6,10500610500608
1,7175	-10,989010989011
1,718	-10,989010989011
1,7185	-1,22100122100122
1,719	3,66300366300365
1,7195	3,66300366300365
1,72	3,66300366300365
1,7205	-1,22100122100122
1,721	3,66300366300365
1,7215	3,66300366300365
1,722	3,66300366300365
1,7225	-1,22100122100122
1,723	-6,10500610500608
1,7235	-1,22100122100122
1,724	-1,22100122100122
1,7245	-1,22100122100122
1,725	-1,22100122100122
1,7255	3,66300366300365
1,726	-1,22100122100122
1,7265	-6,10500610500608
1,727	-6,10500610500608
1,7275	-1,22100122100122
1,728	3,66300366300365
1,7285	3,66300366300365
1,729	3,66300366300365
1,7295	3,66300366300365
1,73	3,66300366300365
1,7305	3,66300366300365
1,731	3,66300366300365
1,7315	8,54700854700852
1,732	8,54700854700852
1,7325	13,4310134310134
1,733	18,3150183150183
1,7335	13,4310134310134
1,734	13,4310134310134
1,7345	8,54700854700852
1,735	8,54700854700852
1,7355	13,4310134310134
1,736	18,3150183150183
1,7365	18,3150183150183
1,737	8,54700854700852
1,7375	8,54700854700852
1,738	3,66300366300365
1,7385	3,66300366300365
1,739	3,66300366300365
1,7395	8,54700854700852
1,74	8,54700854700852
1,7405	3,66300366300365
1,741	3,66300366300365
1,7415	3,66300366300365
1,742	3,66300366300365
1,7425	3,66300366300365
1,743	3,66300366300365
1,7435	3,66300366300365
1,744	3,66300366300365
1,7445	3,66300366300365
1,745	3,66300366300365
1,7455	3,66300366300365
1,746	3,66300366300365
1,7465	3,66300366300365
1,747	3,66300366300365
1,7475	-1,22100122100122
1,748	3,66300366300365
1,7485	3,66300366300365
1,749	3,66300366300365
1,7495	3,66300366300365
1,75	3,66300366300365
1,7505	3,66300366300365
1,751	3,66300366300365
1,7515	3,66300366300365
1,752	-1,22100122100122
1,7525	-1,22100122100122
1,753	-1,22100122100122
1,7535	3,66300366300365
1,754	-1,22100122100122
1,7545	-1,22100122100122
1,755	3,66300366300365
1,7555	3,66300366300365
1,756	8,54700854700852
1,7565	8,54700854700852
1,757	8,54700854700852
1,7575	8,54700854700852
1,758	8,54700854700852
1,7585	8,54700854700852
1,759	13,4310134310134
1,7595	18,3150183150183
1,76	18,3150183150183
1,7605	18,3150183150183
1,761	18,3150183150183
1,7615	8,54700854700852
1,762	8,54700854700852
1,7625	3,66300366300365
1,763	-1,22100122100122
1,7635	-1,22100122100122
1,764	-1,22100122100122
1,7645	-6,10500610500608
1,765	3,66300366300365
1,7655	3,66300366300365
1,766	-1,22100122100122
1,7665	-1,22100122100122
1,767	-1,22100122100122
1,7675	-1,22100122100122
1,768	-6,10500610500608
1,7685	-6,10500610500608
1,769	-1,22100122100122
1,7695	-6,10500610500608
1,77	-6,10500610500608
1,7705	-6,10500610500608
1,771	-6,10500610500608
1,7715	-6,10500610500608
1,772	-6,10500610500608
1,7725	3,66300366300365
1,773	8,54700854700852
1,7735	13,4310134310134
1,774	18,3150183150183
1,7745	13,4310134310134
1,775	8,54700854700852
1,7755	3,66300366300365
1,776	3,66300366300365
1,7765	3,66300366300365
1,777	3,66300366300365
1,7775	3,66300366300365
1,778	3,66300366300365
1,7785	3,66300366300365
1,779	3,66300366300365
1,7795	3,66300366300365
1,78	8,54700854700852
1,7805	8,54700854700852
1,781	8,54700854700852
1,7815	3,66300366300365
1,782	3,66300366300365
1,7825	3,66300366300365
1,783	3,66300366300365
1,7835	3,66300366300365
1,784	3,66300366300365
1,7845	3,66300366300365
1,785	3,66300366300365
1,7855	8,54700854700852
1,786	3,66300366300365
1,7865	3,66300366300365
1,787	3,66300366300365
1,7875	3,66300366300365
1,788	3,66300366300365
1,7885	3,66300366300365
1,789	3,66300366300365
1,7895	3,66300366300365
1,79	8,54700854700852
1,7905	8,54700854700852
1,791	8,54700854700852
1,7915	3,66300366300365
1,792	3,66300366300365
1,7925	-6,10500610500608
1,793	-10,989010989011
1,7935	-20,7570207570207
1,794	-20,7570207570207
1,7945	-15,8730158730158
1,795	-10,989010989011
1,7955	-1,22100122100122
1,796	18,3150183150183
1,7965	37,8510378510377
1,797	47,6190476190475
1,7975	42,7350427350426
1,798	28,083028083028
1,7985	18,3150183150183
1,799	13,4310134310134
1,7995	13,4310134310134
1,8	18,3150183150183
1,8005	18,3150183150183
1,801	13,4310134310134
1,8015	3,66300366300365
1,802	3,66300366300365
1,8025	-1,22100122100122
1,803	-6,10500610500608
1,8035	-6,10500610500608
1,804	-10,989010989011
1,8045	-10,989010989011
1,805	-10,989010989011
1,8055	-10,989010989011
1,806	-10,989010989011
1,8065	-10,989010989011
1,807	-6,10500610500608
1,8075	-6,10500610500608
1,808	-1,22100122100122
1,8085	-1,22100122100122
1,809	-1,22100122100122
1,8095	-6,10500610500608
1,81	-10,989010989011
1,8105	-10,989010989011
1,811	-6,10500610500608
1,8115	3,66300366300365
1,812	3,66300366300365
1,8125	3,66300366300365
1,813	3,66300366300365
1,8135	3,66300366300365
1,814	3,66300366300365
1,8145	8,54700854700852
1,815	8,54700854700852
1,8155	18,3150183150183
1,816	23,1990231990231
1,8165	23,1990231990231
1,817	18,3150183150183
1,8175	8,54700854700852
1,818	3,66300366300365
1,8185	3,66300366300365
1,819	3,66300366300365
1,8195	8,54700854700852
1,82	3,66300366300365
1,8205	3,66300366300365
1,821	3,66300366300365
1,8215	3,66300366300365
1,822	3,66300366300365
1,8225	3,66300366300365
1,823	3,66300366300365
1,8235	3,66300366300365
1,824	3,66300366300365
1,8245	3,66300366300365
1,825	-1,22100122100122
1,8255	-1,22100122100122
1,826	3,66300366300365
1,8265	8,54700854700852
1,827	13,4310134310134
1,8275	13,4310134310134
1,828	8,54700854700852
1,8285	8,54700854700852
1,829	3,66300366300365
1,8295	3,66300366300365
1,83	3,66300366300365
1,8305	3,66300366300365
1,831	3,66300366300365
1,8315	3,66300366300365
1,832	3,66300366300365
1,8325	3,66300366300365
1,833	3,66300366300365
1,8335	3,66300366300365
1,834	3,66300366300365
1,8345	8,54700854700852
1,835	8,54700854700852
1,8355	3,66300366300365
1,836	3,66300366300365
1,8365	3,66300366300365
1,837	-1,22100122100122
1,8375	-1,22100122100122
1,838	-1,22100122100122
1,8385	3,66300366300365
1,839	3,66300366300365
1,8395	3,66300366300365
1,84	3,66300366300365
1,8405	3,66300366300365
1,841	3,66300366300365
1,8415	3,66300366300365
1,842	3,66300366300365
1,8425	3,66300366300365
1,843	3,66300366300365
1,8435	3,66300366300365
1,844	3,66300366300365
1,8445	3,66300366300365
1,845	-1,22100122100122
1,8455	3,66300366300365
1,846	3,66300366300365
1,8465	3,66300366300365
1,847	3,66300366300365
1,8475	3,66300366300365
1,848	3,66300366300365
1,8485	3,66300366300365
1,849	8,54700854700852
1,8495	8,54700854700852
1,85	13,4310134310134
1,8505	18,3150183150183
1,851	23,1990231990231
1,8515	18,3150183150183
1,852	18,3150183150183
1,8525	8,54700854700852
1,853	3,66300366300365
1,8535	3,66300366300365
1,854	3,66300366300365
1,8545	-1,22100122100122
1,855	-1,22100122100122
1,8555	-6,10500610500608
1,856	-10,989010989011
1,8565	-6,10500610500608
1,857	-10,989010989011
1,8575	-15,8730158730158
1,858	-20,7570207570207
1,8585	-15,8730158730158
1,859	-15,8730158730158
1,8595	-10,989010989011
1,86	3,66300366300365
1,8605	23,1990231990231
1,861	37,8510378510377
1,8615	42,7350427350426
1,862	47,6190476190475
1,8625	32,9670329670329
1,863	28,083028083028
1,8635	18,3150183150183
1,864	18,3150183150183
1,8645	8,54700854700852
1,865	18,3150183150183
1,8655	18,3150183150183
1,866	13,4310134310134
1,8665	8,54700854700852
1,867	-1,22100122100122
1,8675	-1,22100122100122
1,868	-6,10500610500608
1,8685	-10,989010989011
1,869	-15,8730158730158
1,8695	-20,7570207570207
1,87	-15,8730158730158
1,8705	-10,989010989011
1,871	-10,989010989011
1,8715	-6,10500610500608
1,872	-6,10500610500608
1,8725	-1,22100122100122
1,873	-1,22100122100122
1,8735	3,66300366300365
1,874	8,54700854700852
1,8745	8,54700854700852
1,875	3,66300366300365
1,8755	3,66300366300365
1,876	8,54700854700852
1,8765	3,66300366300365
1,877	3,66300366300365
1,8775	3,66300366300365
1,878	3,66300366300365
1,8785	8,54700854700852
1,879	8,54700854700852
1,8795	8,54700854700852
1,88	8,54700854700852
1,8805	3,66300366300365
1,881	3,66300366300365
1,8815	3,66300366300365
1,882	3,66300366300365
1,8825	3,66300366300365
1,883	3,66300366300365
1,8835	-1,22100122100122
1,884	-1,22100122100122
1,8845	3,66300366300365
1,885	8,54700854700852
1,8855	8,54700854700852
1,886	3,66300366300365
1,8865	-1,22100122100122
1,887	-1,22100122100122
1,8875	-1,22100122100122
1,888	3,66300366300365
1,8885	3,66300366300365
1,889	3,66300366300365
1,8895	8,54700854700852
1,89	8,54700854700852
1,8905	8,54700854700852
1,891	8,54700854700852
1,8915	8,54700854700852
1,892	3,66300366300365
1,8925	3,66300366300365
1,893	3,66300366300365
1,8935	3,66300366300365
1,894	3,66300366300365
1,8945	3,66300366300365
1,895	3,66300366300365
1,8955	3,66300366300365
1,896	3,66300366300365
1,8965	3,66300366300365
1,897	3,66300366300365
1,8975	3,66300366300365
1,898	3,66300366300365
1,8985	3,66300366300365
1,899	3,66300366300365
1,8995	-1,22100122100122
1,9	-1,22100122100122
1,9005	-6,10500610500608
1,901	-1,22100122100122
1,9015	-1,22100122100122
1,902	3,66300366300365
1,9025	3,66300366300365
1,903	3,66300366300365
1,9035	3,66300366300365
1,904	3,66300366300365
1,9045	8,54700854700852
1,905	8,54700854700852
1,9055	8,54700854700852
1,906	8,54700854700852
1,9065	8,54700854700852
1,907	3,66300366300365
1,9075	3,66300366300365
1,908	3,66300366300365
1,9085	3,66300366300365
1,909	8,54700854700852
1,9095	8,54700854700852
1,91	8,54700854700852
1,9105	8,54700854700852
1,911	8,54700854700852
1,9115	3,66300366300365
1,912	8,54700854700852
1,9125	3,66300366300365
1,913	-1,22100122100122
1,9135	-6,10500610500608
1,914	-6,10500610500608
1,9145	-1,22100122100122
1,915	3,66300366300365
1,9155	3,66300366300365
1,916	3,66300366300365
1,9165	-1,22100122100122
1,917	-1,22100122100122
1,9175	-1,22100122100122
1,918	3,66300366300365
1,9185	3,66300366300365
1,919	8,54700854700852
1,9195	8,54700854700852
1,92	3,66300366300365
1,9205	3,66300366300365
1,921	-1,22100122100122
1,9215	3,66300366300365
1,922	8,54700854700852
1,9225	8,54700854700852
1,923	13,4310134310134
1,9235	8,54700854700852
1,924	8,54700854700852
1,9245	8,54700854700852
1,925	8,54700854700852
1,9255	8,54700854700852
1,926	13,4310134310134
1,9265	18,3150183150183
1,927	13,4310134310134
1,9275	8,54700854700852
1,928	3,66300366300365
1,9285	3,66300366300365
1,929	3,66300366300365
1,9295	-1,22100122100122
1,93	-1,22100122100122
1,9305	3,66300366300365
1,931	3,66300366300365
1,9315	3,66300366300365
1,932	-1,22100122100122
1,9325	-1,22100122100122
1,933	-1,22100122100122
1,9335	-1,22100122100122
1,934	3,66300366300365
1,9345	3,66300366300365
1,935	3,66300366300365
1,9355	3,66300366300365
1,936	-1,22100122100122
1,9365	3,66300366300365
1,937	3,66300366300365
1,9375	8,54700854700852
1,938	8,54700854700852
1,9385	3,66300366300365
1,939	-1,22100122100122
1,9395	-1,22100122100122
1,94	-1,22100122100122
1,9405	-1,22100122100122
1,941	-1,22100122100122
1,9415	-6,10500610500608
1,942	-6,10500610500608
1,9425	-6,10500610500608
1,943	-1,22100122100122
1,9435	-6,10500610500608
1,944	-1,22100122100122
1,9445	3,66300366300365
1,945	3,66300366300365
1,9455	-6,10500610500608
1,946	-10,989010989011
1,9465	-10,989010989011
1,947	-10,989010989011
1,9475	-10,989010989011
1,948	3,66300366300365
1,9485	13,4310134310134
1,949	28,083028083028
1,9495	42,7350427350426
1,95	47,6190476190475
1,9505	47,6190476190475
1,951	37,8510378510377
1,9515	28,083028083028
1,952	18,3150183150183
1,9525	13,4310134310134
1,953	8,54700854700852
1,9535	8,54700854700852
1,954	3,66300366300365
1,9545	-6,10500610500608
1,955	-10,989010989011
1,9555	-15,8730158730158
1,956	-10,989010989011
1,9565	-1,22100122100122
1,957	3,66300366300365
1,9575	3,66300366300365
1,958	3,66300366300365
1,9585	-1,22100122100122
1,959	-1,22100122100122
1,9595	-1,22100122100122
1,96	-1,22100122100122
1,9605	-1,22100122100122
1,961	-1,22100122100122
1,9615	-6,10500610500608
1,962	-1,22100122100122
1,9625	-1,22100122100122
1,963	-1,22100122100122
1,9635	-1,22100122100122
1,964	-1,22100122100122
1,9645	-1,22100122100122
1,965	-1,22100122100122
1,9655	3,66300366300365
1,966	3,66300366300365
1,9665	3,66300366300365
1,967	3,66300366300365
1,9675	3,66300366300365
1,968	3,66300366300365
1,9685	3,66300366300365
1,969	3,66300366300365
1,9695	3,66300366300365
1,97	3,66300366300365
1,9705	8,54700854700852
1,971	3,66300366300365
1,9715	3,66300366300365
1,972	3,66300366300365
1,9725	3,66300366300365
1,973	8,54700854700852
1,9735	8,54700854700852
1,974	3,66300366300365
1,9745	3,66300366300365
1,975	3,66300366300365
1,9755	3,66300366300365
1,976	3,66300366300365
1,9765	3,66300366300365
1,977	3,66300366300365
1,9775	3,66300366300365
1,978	3,66300366300365
1,9785	3,66300366300365
1,979	8,54700854700852
1,9795	8,54700854700852
1,98	8,54700854700852
1,9805	8,54700854700852
1,981	8,54700854700852
1,9815	8,54700854700852
1,982	8,54700854700852
1,9825	3,66300366300365
1,983	3,66300366300365
1,9835	3,66300366300365
1,984	8,54700854700852
1,9845	3,66300366300365
1,985	3,66300366300365
1,9855	3,66300366300365
1,986	3,66300366300365
1,9865	3,66300366300365
1,987	-1,22100122100122
1,9875	-1,22100122100122
1,988	-1,22100122100122
1,9885	-1,22100122100122
1,989	-1,22100122100122
1,9895	-1,22100122100122
1,99	-1,22100122100122
1,9905	3,66300366300365
1,991	3,66300366300365
1,9915	3,66300366300365
1,992	8,54700854700852
1,9925	13,4310134310134
1,993	18,3150183150183
1,9935	18,3150183150183
1,994	18,3150183150183
1,9945	8,54700854700852
1,995	8,54700854700852
1,9955	8,54700854700852
1,996	8,54700854700852
1,9965	3,66300366300365
1,997	3,66300366300365
1,9975	3,66300366300365
1,998	3,66300366300365
1,9985	3,66300366300365
1,999	3,66300366300365
1,9995	3,66300366300365
2	-1,22100122100122
2,0005	-1,22100122100122
2,001	-1,22100122100122
2,0015	-1,22100122100122
2,002	3,66300366300365
2,0025	3,66300366300365
2,003	8,54700854700852
2,0035	3,66300366300365
2,004	3,66300366300365
2,0045	3,66300366300365
2,005	-1,22100122100122
2,0055	-1,22100122100122
2,006	3,66300366300365
2,0065	8,54700854700852
2,007	8,54700854700852
2,0075	8,54700854700852
2,008	3,66300366300365
2,0085	-1,22100122100122
2,009	-6,10500610500608
2,0095	-6,10500610500608
2,01	-10,989010989011
2,0105	-15,8730158730158
2,011	-15,8730158730158
2,0115	-10,989010989011
2,012	-6,10500610500608
2,0125	-1,22100122100122
2,013	18,3150183150183
2,0135	32,9670329670329
2,014	42,7350427350426
2,0145	47,6190476190475
2,015	37,8510378510377
2,0155	28,083028083028
2,016	23,1990231990231
2,0165	13,4310134310134
2,017	8,54700854700852
2,0175	8,54700854700852
2,018	3,66300366300365
2,0185	-6,10500610500608
2,019	-10,989010989011
2,0195	-10,989010989011
2,02	-10,989010989011
2,0205	-10,989010989011
2,021	-10,989010989011
2,0215	-6,10500610500608
2,022	-6,10500610500608
2,0225	-6,10500610500608
2,023	-6,10500610500608
2,0235	-6,10500610500608
2,024	-1,22100122100122
2,0245	3,66300366300365
2,025	3,66300366300365
2,0255	8,54700854700852
2,026	8,54700854700852
2,0265	8,54700854700852
2,027	8,54700854700852
2,0275	8,54700854700852
2,028	3,66300366300365
2,0285	3,66300366300365
2,029	3,66300366300365
2,0295	3,66300366300365
2,03	-1,22100122100122
2,0305	3,66300366300365
2,031	3,66300366300365
2,0315	3,66300366300365
2,032	8,54700854700852
2,0325	8,54700854700852
2,033	8,54700854700852
2,0335	8,54700854700852
2,034	3,66300366300365
2,0345	3,66300366300365
2,035	3,66300366300365
2,0355	-1,22100122100122
2,036	-1,22100122100122
2,0365	3,66300366300365
2,037	8,54700854700852
2,0375	3,66300366300365
2,038	-1,22100122100122
2,0385	3,66300366300365
2,039	8,54700854700852
2,0395	8,54700854700852
2,04	8,54700854700852
2,0405	8,54700854700852
2,041	13,4310134310134
2,0415	13,4310134310134
2,042	8,54700854700852
2,0425	-6,10500610500608
2,043	-10,989010989011
2,0435	-6,10500610500608
2,044	-6,10500610500608
2,0445	-1,22100122100122
2,045	3,66300366300365
2,0455	3,66300366300365
2,046	3,66300366300365
2,0465	3,66300366300365
2,047	3,66300366300365
2,0475	3,66300366300365
2,048	3,66300366300365
2,0485	3,66300366300365
2,049	3,66300366300365
2,0495	3,66300366300365
2,05	3,66300366300365
2,0505	3,66300366300365
2,051	3,66300366300365
2,0515	3,66300366300365
2,052	8,54700854700852
2,0525	8,54700854700852
2,053	8,54700854700852
2,0535	3,66300366300365
2,054	3,66300366300365
2,0545	8,54700854700852
2,055	8,54700854700852
2,0555	8,54700854700852
2,056	8,54700854700852
2,0565	13,4310134310134
2,057	8,54700854700852
2,0575	8,54700854700852
2,058	3,66300366300365
2,0585	-1,22100122100122
2,059	-1,22100122100122
2,0595	-1,22100122100122
2,06	3,66300366300365
2,0605	3,66300366300365
2,061	3,66300366300365
2,0615	3,66300366300365
2,062	3,66300366300365
2,0625	3,66300366300365
2,063	3,66300366300365
2,0635	3,66300366300365
2,064	8,54700854700852
2,0645	3,66300366300365
2,065	3,66300366300365
2,0655	3,66300366300365
2,066	-1,22100122100122
2,0665	-1,22100122100122
2,067	-1,22100122100122
2,0675	3,66300366300365
2,068	-1,22100122100122
2,0685	3,66300366300365
2,069	3,66300366300365
2,0695	8,54700854700852
2,07	3,66300366300365
2,0705	8,54700854700852
2,071	3,66300366300365
2,0715	3,66300366300365
2,072	8,54700854700852
2,0725	8,54700854700852
2,073	8,54700854700852
2,0735	3,66300366300365
2,074	8,54700854700852
2,0745	8,54700854700852
2,075	13,4310134310134
2,0755	13,4310134310134
2,076	8,54700854700852
2,0765	3,66300366300365
2,077	3,66300366300365
2,0775	3,66300366300365
2,078	3,66300366300365
2,0785	3,66300366300365
2,079	3,66300366300365
2,0795	3,66300366300365
2,08	-1,22100122100122
2,0805	-1,22100122100122
2,081	-1,22100122100122
2,0815	-1,22100122100122
2,082	-6,10500610500608
2,0825	-1,22100122100122
2,083	-1,22100122100122
2,0835	-6,10500610500608
2,084	-10,989010989011
2,0845	-20,7570207570207
2,085	-15,8730158730158
2,0855	-15,8730158730158
2,086	-10,989010989011
2,0865	-1,22100122100122
2,087	8,54700854700852
2,0875	32,9670329670329
2,088	42,7350427350426
2,0885	47,6190476190475
2,089	42,7350427350426
2,0895	32,9670329670329
2,09	23,1990231990231
2,0905	13,4310134310134
2,091	13,4310134310134
2,0915	13,4310134310134
2,092	8,54700854700852
2,0925	8,54700854700852
2,093	3,66300366300365
2,0935	-6,10500610500608
2,094	-10,989010989011
2,0945	-10,989010989011
2,095	-15,8730158730158
2,0955	-15,8730158730158
2,096	-10,989010989011
2,0965	-10,989010989011
2,097	-1,22100122100122
2,0975	8,54700854700852
2,098	13,4310134310134
2,0985	13,4310134310134
2,099	3,66300366300365
2,0995	-1,22100122100122
2,1	-1,22100122100122
2,1005	-6,10500610500608
2,101	-1,22100122100122
2,1015	-1,22100122100122
2,102	-1,22100122100122
2,1025	-10,989010989011
2,103	-10,989010989011
2,1035	-10,989010989011
2,104	-10,989010989011
2,1045	-1,22100122100122
2,105	3,66300366300365
2,1055	8,54700854700852
2,106	8,54700854700852
2,1065	8,54700854700852
2,107	3,66300366300365
2,1075	3,66300366300365
2,108	3,66300366300365
2,1085	8,54700854700852
2,109	8,54700854700852
2,1095	8,54700854700852
2,11	8,54700854700852
2,1105	8,54700854700852
2,111	13,4310134310134
2,1115	8,54700854700852
2,112	8,54700854700852
2,1125	8,54700854700852
2,113	8,54700854700852
2,1135	8,54700854700852
2,114	3,66300366300365
2,1145	3,66300366300365
2,115	3,66300366300365
2,1155	3,66300366300365
2,116	3,66300366300365
2,1165	8,54700854700852
2,117	8,54700854700852
2,1175	8,54700854700852
2,118	8,54700854700852
2,1185	3,66300366300365
2,119	-6,10500610500608
2,1195	-10,989010989011
2,12	-10,989010989011
2,1205	-1,22100122100122
2,121	3,66300366300365
2,1215	13,4310134310134
2,122	13,4310134310134
2,1225	13,4310134310134
2,123	13,4310134310134
2,1235	8,54700854700852
2,124	8,54700854700852
2,1245	8,54700854700852
2,125	8,54700854700852
2,1255	8,54700854700852
2,126	8,54700854700852
2,1265	3,66300366300365
2,127	3,66300366300365
2,1275	3,66300366300365
2,128	3,66300366300365
2,1285	3,66300366300365
2,129	3,66300366300365
2,1295	3,66300366300365
2,13	-1,22100122100122
2,1305	3,66300366300365
2,131	3,66300366300365
2,1315	3,66300366300365
2,132	3,66300366300365
2,1325	3,66300366300365
2,133	3,66300366300365
2,1335	3,66300366300365
2,134	3,66300366300365
2,1345	3,66300366300365
2,135	3,66300366300365
2,1355	3,66300366300365
2,136	3,66300366300365
2,1365	3,66300366300365
2,137	3,66300366300365
2,1375	3,66300366300365
2,138	3,66300366300365
2,1385	3,66300366300365
2,139	3,66300366300365
2,1395	3,66300366300365
2,14	3,66300366300365
2,1405	3,66300366300365
2,141	3,66300366300365
2,1415	3,66300366300365
2,142	3,66300366300365
2,1425	3,66300366300365
2,143	-1,22100122100122
2,1435	-1,22100122100122
2,144	3,66300366300365
2,1445	3,66300366300365
2,145	3,66300366300365
2,1455	8,54700854700852
2,146	8,54700854700852
2,1465	8,54700854700852
2,147	8,54700854700852
2,1475	3,66300366300365
2,148	-1,22100122100122
2,1485	-1,22100122100122
2,149	-1,22100122100122
2,1495	3,66300366300365
2,15	3,66300366300365
2,1505	3,66300366300365
2,151	8,54700854700852
2,1515	18,3150183150183
2,152	18,3150183150183
2,1525	18,3150183150183
2,153	18,3150183150183
2,1535	18,3150183150183
2,154	8,54700854700852
2,1545	8,54700854700852
2,155	3,66300366300365
2,1555	3,66300366300365
2,156	3,66300366300365
2,1565	-1,22100122100122
2,157	-1,22100122100122
2,1575	3,66300366300365
2,158	-1,22100122100122
2,1585	3,66300366300365
2,159	3,66300366300365
2,1595	3,66300366300365
2,16	3,66300366300365
2,1605	3,66300366300365
2,161	3,66300366300365
2,1615	3,66300366300365
2,162	3,66300366300365
2,1625	3,66300366300365
2,163	3,66300366300365
2,1635	3,66300366300365
2,164	-1,22100122100122
2,1645	-6,10500610500608
2,165	-6,10500610500608
2,1655	-6,10500610500608
2,166	-6,10500610500608
2,1665	-1,22100122100122
2,167	-1,22100122100122
2,1675	-1,22100122100122
2,168	3,66300366300365
2,1685	3,66300366300365
2,169	3,66300366300365
2,1695	3,66300366300365
2,17	3,66300366300365
2,1705	3,66300366300365
2,171	3,66300366300365
2,1715	3,66300366300365
2,172	3,66300366300365
2,1725	8,54700854700852
2,173	3,66300366300365
2,1735	3,66300366300365
2,174	3,66300366300365
2,1745	3,66300366300365
2,175	3,66300366300365
2,1755	-1,22100122100122
2,176	-10,989010989011
2,1765	-15,8730158730158
2,177	-15,8730158730158
2,1775	-10,989010989011
2,178	-6,10500610500608
2,1785	3,66300366300365
2,179	23,1990231990231
2,1795	42,7350427350426
2,18	47,6190476190475
2,1805	47,6190476190475
2,181	42,7350427350426
2,1815	28,083028083028
2,182	18,3150183150183
2,1825	13,4310134310134
2,183	13,4310134310134
2,1835	13,4310134310134
2,184	8,54700854700852
2,1845	3,66300366300365
2,185	-1,22100122100122
2,1855	-6,10500610500608
2,186	-6,10500610500608
2,1865	-6,10500610500608
2,187	-10,989010989011
2,1875	-6,10500610500608
2,188	-6,10500610500608
2,1885	-6,10500610500608
2,189	-6,10500610500608
2,1895	-6,10500610500608
2,19	-6,10500610500608
2,1905	-6,10500610500608
2,191	-1,22100122100122
2,1915	-1,22100122100122
2,192	-1,22100122100122
2,1925	-1,22100122100122
2,193	-1,22100122100122
2,1935	-1,22100122100122
2,194	3,66300366300365
2,1945	3,66300366300365
2,195	-1,22100122100122
2,1955	-1,22100122100122
2,196	-6,10500610500608
2,1965	-1,22100122100122
2,197	-1,22100122100122
2,1975	3,66300366300365
2,198	8,54700854700852
2,1985	18,3150183150183
2,199	18,3150183150183
2,1995	18,3150183150183
2,2	8,54700854700852
2,2005	8,54700854700852
2,201	3,66300366300365
2,2015	8,54700854700852
2,202	8,54700854700852
2,2025	8,54700854700852
2,203	3,66300366300365
2,2035	8,54700854700852
2,204	3,66300366300365
2,2045	3,66300366300365
2,205	3,66300366300365
2,2055	3,66300366300365
2,206	-1,22100122100122
2,2065	-1,22100122100122
2,207	3,66300366300365
2,2075	3,66300366300365
2,208	3,66300366300365
2,2085	3,66300366300365
2,209	3,66300366300365
2,2095	8,54700854700852
2,21	8,54700854700852
2,2105	3,66300366300365
2,211	3,66300366300365
2,2115	3,66300366300365
2,212	-1,22100122100122
2,2125	-6,10500610500608
2,213	-6,10500610500608
2,2135	-6,10500610500608
2,214	-1,22100122100122
2,2145	-1,22100122100122
2,215	3,66300366300365
2,2155	-1,22100122100122
2,216	3,66300366300365
2,2165	3,66300366300365
2,217	3,66300366300365
2,2175	8,54700854700852
2,218	13,4310134310134
2,2185	18,3150183150183
2,219	3,66300366300365
2,2195	-1,22100122100122
2,22	-1,22100122100122
2,2205	3,66300366300365
2,221	3,66300366300365
2,2215	8,54700854700852
2,222	8,54700854700852
2,2225	8,54700854700852
2,223	8,54700854700852
2,2235	8,54700854700852
2,224	8,54700854700852
2,2245	3,66300366300365
2,225	8,54700854700852
2,2255	3,66300366300365
2,226	8,54700854700852
2,2265	13,4310134310134
2,227	18,3150183150183
2,2275	18,3150183150183
2,228	18,3150183150183
2,2285	8,54700854700852
2,229	3,66300366300365
2,2295	3,66300366300365
2,23	3,66300366300365
2,2305	3,66300366300365
2,231	3,66300366300365
2,2315	3,66300366300365
2,232	3,66300366300365
2,2325	3,66300366300365
2,233	-6,10500610500608
2,2335	-6,10500610500608
2,234	-6,10500610500608
2,2345	-6,10500610500608
2,235	-1,22100122100122
2,2355	-1,22100122100122
2,236	3,66300366300365
2,2365	-1,22100122100122
2,237	3,66300366300365
2,2375	-1,22100122100122
2,238	3,66300366300365
2,2385	-6,10500610500608
2,239	-6,10500610500608
2,2395	3,66300366300365
2,24	3,66300366300365
2,2405	8,54700854700852
2,241	8,54700854700852
2,2415	8,54700854700852
2,242	3,66300366300365
2,2425	3,66300366300365
2,243	3,66300366300365
2,2435	3,66300366300365
2,244	3,66300366300365
2,2445	-6,10500610500608
2,245	-10,989010989011
2,2455	-20,7570207570207
2,246	-15,8730158730158
2,2465	-10,989010989011
2,247	-10,989010989011
2,2475	3,66300366300365
2,248	23,1990231990231
2,2485	37,8510378510377
2,249	42,7350427350426
2,2495	42,7350427350426
2,25	32,9670329670329
2,2505	23,1990231990231
2,251	18,3150183150183
2,2515	13,4310134310134
2,252	13,4310134310134
2,2525	13,4310134310134
2,253	3,66300366300365
2,2535	-6,10500610500608
2,254	-10,989010989011
2,2545	-10,989010989011
2,255	-10,989010989011
2,2555	-6,10500610500608
2,256	-1,22100122100122
2,2565	8,54700854700852
2,257	13,4310134310134
2,2575	8,54700854700852
2,258	3,66300366300365
2,2585	-6,10500610500608
2,259	-6,10500610500608
2,2595	-6,10500610500608
2,26	-1,22100122100122
2,2605	3,66300366300365
2,261	3,66300366300365
2,2615	3,66300366300365
2,262	3,66300366300365
2,2625	-1,22100122100122
2,263	-1,22100122100122
2,2635	-1,22100122100122
2,264	-6,10500610500608
2,2645	-1,22100122100122
2,265	-1,22100122100122
2,2655	3,66300366300365
2,266	-1,22100122100122
2,2665	3,66300366300365
2,267	3,66300366300365
2,2675	3,66300366300365
2,268	3,66300366300365
2,2685	3,66300366300365
2,269	3,66300366300365
2,2695	3,66300366300365
2,27	3,66300366300365
2,2705	3,66300366300365
2,271	3,66300366300365
2,2715	-1,22100122100122
2,272	3,66300366300365
2,2725	3,66300366300365
2,273	3,66300366300365
2,2735	3,66300366300365
2,274	3,66300366300365
2,2745	8,54700854700852
2,275	8,54700854700852
2,2755	8,54700854700852
2,276	8,54700854700852
2,2765	8,54700854700852
2,277	3,66300366300365
2,2775	3,66300366300365
2,278	3,66300366300365
2,2785	3,66300366300365
2,279	3,66300366300365
2,2795	3,66300366300365
2,28	3,66300366300365
2,2805	8,54700854700852
2,281	3,66300366300365
2,2815	3,66300366300365
2,282	3,66300366300365
2,2825	3,66300366300365
2,283	3,66300366300365
2,2835	3,66300366300365
2,284	8,54700854700852
2,2845	8,54700854700852
2,285	8,54700854700852
2,2855	8,54700854700852
2,286	8,54700854700852
2,2865	3,66300366300365
2,287	3,66300366300365
2,2875	3,66300366300365
2,288	-1,22100122100122
2,2885	-1,22100122100122
2,289	-1,22100122100122
2,2895	-6,10500610500608
2,29	-6,10500610500608
2,2905	-6,10500610500608
2,291	-6,10500610500608
2,2915	3,66300366300365
2,292	3,66300366300365
2,2925	3,66300366300365
2,293	3,66300366300365
2,2935	8,54700854700852
2,294	8,54700854700852
2,2945	8,54700854700852
2,295	8,54700854700852
2,2955	3,66300366300365
2,296	3,66300366300365
2,2965	3,66300366300365
2,297	3,66300366300365
2,2975	3,66300366300365
2,298	3,66300366300365
2,2985	3,66300366300365
2,299	3,66300366300365
2,2995	8,54700854700852
2,3	8,54700854700852
2,3005	8,54700854700852
2,301	13,4310134310134
2,3015	18,3150183150183
2,302	18,3150183150183
2,3025	13,4310134310134
2,303	8,54700854700852
2,3035	8,54700854700852
2,304	3,66300366300365
2,3045	3,66300366300365
2,305	3,66300366300365
2,3055	3,66300366300365
2,306	3,66300366300365
2,3065	3,66300366300365
2,307	-1,22100122100122
2,3075	3,66300366300365
2,308	3,66300366300365
2,3085	3,66300366300365
2,309	-1,22100122100122
2,3095	-1,22100122100122
2,31	-1,22100122100122
2,3105	3,66300366300365
2,311	3,66300366300365
2,3115	3,66300366300365
2,312	3,66300366300365
2,3125	3,66300366300365
2,313	8,54700854700852
2,3135	8,54700854700852
2,314	8,54700854700852
2,3145	8,54700854700852
2,315	8,54700854700852
2,3155	8,54700854700852
2,316	3,66300366300365
2,3165	3,66300366300365
2,317	-1,22100122100122
2,3175	-1,22100122100122
2,318	-1,22100122100122
2,3185	3,66300366300365
2,319	3,66300366300365
2,3195	3,66300366300365
2,32	3,66300366300365
2,3205	3,66300366300365
2,321	3,66300366300365
2,3215	3,66300366300365
2,322	3,66300366300365
2,3225	3,66300366300365
2,323	-1,22100122100122
2,3235	3,66300366300365
2,324	3,66300366300365
2,3245	3,66300366300365
2,325	3,66300366300365
2,3255	3,66300366300365
2,326	3,66300366300365
2,3265	3,66300366300365
2,327	3,66300366300365
2,3275	-10,989010989011
2,328	-10,989010989011
2,3285	-10,989010989011
2,329	-10,989010989011
2,3295	-10,989010989011
2,33	-1,22100122100122
2,3305	23,1990231990231
2,331	42,7350427350426
2,3315	47,6190476190475
2,332	52,5030525030523
2,3325	37,8510378510377
2,333	13,4310134310134
2,3335	-10,989010989011
2,334	-10,989010989011
2,3345	-6,10500610500608
2,335	-1,22100122100122
2,3355	-1,22100122100122
2,336	-6,10500610500608
2,3365	-10,989010989011
2,337	-10,989010989011
2,3375	-10,989010989011
2,338	-10,989010989011
2,3385	-6,10500610500608
2,339	-6,10500610500608
2,3395	-1,22100122100122
2,34	3,66300366300365
2,3405	3,66300366300365
2,341	8,54700854700852
2,3415	8,54700854700852
2,342	3,66300366300365
2,3425	3,66300366300365
2,343	3,66300366300365
2,3435	3,66300366300365
2,344	8,54700854700852
2,3445	8,54700854700852
2,345	8,54700854700852
2,3455	13,4310134310134
2,346	8,54700854700852
2,3465	8,54700854700852
2,347	3,66300366300365
2,3475	3,66300366300365
2,348	3,66300366300365
2,3485	8,54700854700852
2,349	3,66300366300365
2,3495	3,66300366300365
2,35	3,66300366300365
2,3505	3,66300366300365
2,351	3,66300366300365
2,3515	-1,22100122100122
2,352	-1,22100122100122
2,3525	3,66300366300365
2,353	3,66300366300365
2,3535	3,66300366300365
2,354	3,66300366300365
2,3545	-1,22100122100122
2,355	3,66300366300365
2,3555	3,66300366300365
2,356	3,66300366300365
2,3565	8,54700854700852
2,357	3,66300366300365
2,3575	3,66300366300365
2,358	3,66300366300365
2,3585	3,66300366300365
2,359	3,66300366300365
2,3595	3,66300366300365
2,36	3,66300366300365
2,3605	3,66300366300365
2,361	3,66300366300365
2,3615	3,66300366300365
2,362	3,66300366300365
2,3625	3,66300366300365
2,363	8,54700854700852
2,3635	8,54700854700852
2,364	8,54700854700852
2,3645	8,54700854700852
2,365	8,54700854700852
2,3655	3,66300366300365
2,366	8,54700854700852
2,3665	3,66300366300365
2,367	3,66300366300365
2,3675	-1,22100122100122
2,368	-1,22100122100122
2,3685	-1,22100122100122
2,369	-1,22100122100122
2,3695	-1,22100122100122
2,37	-1,22100122100122
2,3705	3,66300366300365
2,371	8,54700854700852
2,3715	13,4310134310134
2,372	8,54700854700852
2,3725	3,66300366300365
2,373	3,66300366300365
2,3735	3,66300366300365
2,374	3,66300366300365
2,3745	3,66300366300365
2,375	3,66300366300365
2,3755	3,66300366300365
2,376	8,54700854700852
2,3765	8,54700854700852
2,377	8,54700854700852
2,3775	8,54700854700852
2,378	8,54700854700852
2,3785	3,66300366300365
2,379	3,66300366300365
2,3795	3,66300366300365
2,38	3,66300366300365
2,3805	3,66300366300365
2,381	-1,22100122100122
2,3815	-1,22100122100122
2,382	-6,10500610500608
2,3825	-1,22100122100122
2,383	-10,989010989011
2,3835	-10,989010989011
2,384	-10,989010989011
2,3845	-6,10500610500608
2,385	-1,22100122100122
2,3855	-1,22100122100122
2,386	3,66300366300365
2,3865	-1,22100122100122
2,387	3,66300366300365
2,3875	3,66300366300365
2,388	3,66300366300365
2,3885	3,66300366300365
2,389	3,66300366300365
2,3895	3,66300366300365
2,39	3,66300366300365
2,3905	13,4310134310134
2,391	18,3150183150183
2,3915	23,1990231990231
2,392	23,1990231990231
2,3925	18,3150183150183
2,393	13,4310134310134
2,3935	8,54700854700852
2,394	8,54700854700852
2,3945	8,54700854700852
2,395	3,66300366300365
2,3955	3,66300366300365
2,396	3,66300366300365
2,3965	3,66300366300365
2,397	3,66300366300365
2,3975	3,66300366300365
2,398	3,66300366300365
2,3985	-1,22100122100122
2,399	-1,22100122100122
2,3995	-1,22100122100122
2,4	-1,22100122100122
2,4005	-1,22100122100122
2,401	-1,22100122100122
2,4015	-1,22100122100122
2,402	-1,22100122100122
2,4025	3,66300366300365
2,403	-1,22100122100122
2,4035	3,66300366300365
2,404	-1,22100122100122
2,4045	-1,22100122100122
2,405	-1,22100122100122
2,4055	3,66300366300365
2,406	3,66300366300365
2,4065	3,66300366300365
2,407	3,66300366300365
2,4075	3,66300366300365
2,408	3,66300366300365
2,4085	3,66300366300365
2,409	3,66300366300365
2,4095	3,66300366300365
2,41	3,66300366300365
2,4105	8,54700854700852
2,411	8,54700854700852
2,4115	8,54700854700852
2,412	8,54700854700852
2,4125	8,54700854700852
2,413	8,54700854700852
2,4135	8,54700854700852
2,414	8,54700854700852
2,4145	18,3150183150183
2,415	18,3150183150183
2,4155	8,54700854700852
2,416	-10,989010989011
2,4165	-30,5250305250304
2,417	-30,5250305250304
2,4175	-25,6410256410256
2,418	-10,989010989011
2,4185	-6,10500610500608
2,419	18,3150183150183
2,4195	32,9670329670329
2,42	37,8510378510377
2,4205	37,8510378510377
2,421	32,9670329670329
2,4215	23,1990231990231
2,422	13,4310134310134
2,4225	8,54700854700852
2,423	8,54700854700852
2,4235	13,4310134310134
2,424	8,54700854700852
2,4245	3,66300366300365
2,425	-1,22100122100122
2,4255	-6,10500610500608
2,426	-6,10500610500608
2,4265	-10,989010989011
2,427	-6,10500610500608
2,4275	-6,10500610500608
2,428	-10,989010989011
2,4285	-6,10500610500608
2,429	-6,10500610500608
2,4295	-6,10500610500608
2,43	-1,22100122100122
2,4305	-1,22100122100122
2,431	-1,22100122100122
2,4315	-1,22100122100122
2,432	-1,22100122100122
2,4325	3,66300366300365
2,433	8,54700854700852
2,4335	13,4310134310134
2,434	18,3150183150183
2,4345	18,3150183150183
2,435	13,4310134310134
2,4355	8,54700854700852
2,436	3,66300366300365
2,4365	3,66300366300365
2,437	-1,22100122100122
2,4375	-6,10500610500608
2,438	-6,10500610500608
2,4385	-1,22100122100122
2,439	8,54700854700852
2,4395	3,66300366300365
2,44	-1,22100122100122
2,4405	-1,22100122100122
2,441	-6,10500610500608
2,4415	-1,22100122100122
2,442	-1,22100122100122
2,4425	3,66300366300365
2,443	3,66300366300365
2,4435	8,54700854700852
2,444	3,66300366300365
2,4445	3,66300366300365
2,445	3,66300366300365
2,4455	3,66300366300365
2,446	3,66300366300365
2,4465	3,66300366300365
2,447	3,66300366300365
2,4475	3,66300366300365
2,448	3,66300366300365
2,4485	3,66300366300365
2,449	3,66300366300365
2,4495	8,54700854700852
2,45	8,54700854700852
2,4505	13,4310134310134
2,451	8,54700854700852
2,4515	8,54700854700852
2,452	8,54700854700852
2,4525	8,54700854700852
2,453	3,66300366300365
2,4535	8,54700854700852
2,454	3,66300366300365
2,4545	3,66300366300365
2,455	3,66300366300365
2,4555	8,54700854700852
2,456	8,54700854700852
2,4565	8,54700854700852
2,457	3,66300366300365
2,4575	-1,22100122100122
2,458	-1,22100122100122
2,4585	-1,22100122100122
2,459	3,66300366300365
2,4595	3,66300366300365
2,46	-1,22100122100122
2,4605	-6,10500610500608
2,461	3,66300366300365
2,4615	3,66300366300365
2,462	8,54700854700852
2,4625	18,3150183150183
2,463	18,3150183150183
2,4635	8,54700854700852
2,464	8,54700854700852
2,4645	8,54700854700852
2,465	3,66300366300365
2,4655	8,54700854700852
2,466	8,54700854700852
2,4665	3,66300366300365
2,467	-1,22100122100122
2,4675	-6,10500610500608
2,468	-6,10500610500608
2,4685	-6,10500610500608
2,469	-6,10500610500608
2,4695	-6,10500610500608
2,47	-6,10500610500608
2,4705	-1,22100122100122
2,471	3,66300366300365
2,4715	3,66300366300365
2,472	3,66300366300365
2,4725	3,66300366300365
2,473	8,54700854700852
2,4735	8,54700854700852
2,474	13,4310134310134
2,4745	13,4310134310134
2,475	8,54700854700852
2,4755	8,54700854700852
2,476	13,4310134310134
2,4765	8,54700854700852
2,477	3,66300366300365
2,4775	3,66300366300365
2,478	3,66300366300365
2,4785	8,54700854700852
2,479	3,66300366300365
2,4795	3,66300366300365
2,48	3,66300366300365
2,4805	-1,22100122100122
2,481	-1,22100122100122
2,4815	-1,22100122100122
2,482	3,66300366300365
2,4825	3,66300366300365
2,483	3,66300366300365
2,4835	3,66300366300365
2,484	3,66300366300365
2,4845	-6,10500610500608
2,485	-15,8730158730158
2,4855	-20,7570207570207
2,486	-20,7570207570207
2,4865	-10,989010989011
2,487	-10,989010989011
2,4875	3,66300366300365
2,488	23,1990231990231
2,4885	37,8510378510377
2,489	37,8510378510377
2,4895	37,8510378510377
2,49	28,083028083028
2,4905	23,1990231990231
2,491	18,3150183150183
2,4915	8,54700854700852
2,492	8,54700854700852
2,4925	8,54700854700852
2,493	3,66300366300365
2,4935	-1,22100122100122
2,494	-6,10500610500608
2,4945	-10,989010989011
2,495	-6,10500610500608
2,4955	-6,10500610500608
2,496	-6,10500610500608
2,4965	-6,10500610500608
2,497	-1,22100122100122
2,4975	-6,10500610500608
2,498	-6,10500610500608
2,4985	-1,22100122100122
2,499	-1,22100122100122
2,4995	3,66300366300365
2,5	8,54700854700852
2,5005	13,4310134310134
2,501	18,3150183150183
2,5015	18,3150183150183
2,502	13,4310134310134
2,5025	3,66300366300365
2,503	-6,10500610500608
2,5035	-10,989010989011
2,504	-10,989010989011
2,5045	-10,989010989011
2,505	-6,10500610500608
2,5055	-1,22100122100122
2,506	-1,22100122100122
2,5065	-1,22100122100122
2,507	3,66300366300365
2,5075	3,66300366300365
2,508	3,66300366300365
2,5085	3,66300366300365
2,509	3,66300366300365
2,5095	8,54700854700852
2,51	3,66300366300365
2,5105	8,54700854700852
2,511	3,66300366300365
2,5115	8,54700854700852
2,512	8,54700854700852
2,5125	8,54700854700852
2,513	8,54700854700852
2,5135	3,66300366300365
2,514	8,54700854700852
2,5145	8,54700854700852
2,515	8,54700854700852
2,5155	3,66300366300365
2,516	3,66300366300365
2,5165	3,66300366300365
2,517	3,66300366300365
2,5175	8,54700854700852
2,518	3,66300366300365
2,5185	3,66300366300365
2,519	3,66300366300365
2,5195	3,66300366300365
2,52	8,54700854700852
2,5205	3,66300366300365
2,521	8,54700854700852
2,5215	8,54700854700852
2,522	3,66300366300365
2,5225	-1,22100122100122
2,523	-1,22100122100122
2,5235	3,66300366300365
2,524	3,66300366300365
2,5245	3,66300366300365
2,525	3,66300366300365
2,5255	3,66300366300365
2,526	3,66300366300365
2,5265	8,54700854700852
2,527	8,54700854700852
2,5275	8,54700854700852
2,528	3,66300366300365
2,5285	-1,22100122100122
2,529	-1,22100122100122
2,5295	-6,10500610500608
2,53	-6,10500610500608
2,5305	-10,989010989011
2,531	-10,989010989011
2,5315	-10,989010989011
2,532	-10,989010989011
2,5325	-1,22100122100122
2,533	3,66300366300365
2,5335	8,54700854700852
2,534	18,3150183150183
