Time(s)	NHPT_EXT
0	3,66300366300365
0,0005	3,66300366300365
0,001	3,66300366300365
0,0015	-1,22100122100122
0,002	-10,989010989011
0,0025	-10,989010989011
0,003	-10,989010989011
0,0035	-10,989010989011
0,004	-10,989010989011
0,0045	-1,22100122100122
0,005	3,66300366300365
0,0055	8,54700854700852
0,006	8,54700854700852
0,0065	13,4310134310134
0,007	18,3150183150183
0,0075	18,3150183150183
0,008	18,3150183150183
0,0085	18,3150183150183
0,009	18,3150183150183
0,0095	13,4310134310134
0,01	8,54700854700852
0,0105	13,4310134310134
0,011	8,54700854700852
0,0115	8,54700854700852
0,012	8,54700854700852
0,0125	8,54700854700852
0,013	8,54700854700852
0,0135	8,54700854700852
0,014	8,54700854700852
0,0145	8,54700854700852
0,015	13,4310134310134
0,0155	18,3150183150183
0,016	18,3150183150183
0,0165	18,3150183150183
0,017	8,54700854700852
0,0175	-6,10500610500608
0,018	-10,989010989011
0,0185	-10,989010989011
0,019	-6,10500610500608
0,0195	-1,22100122100122
0,02	3,66300366300365
0,0205	8,54700854700852
0,021	8,54700854700852
0,0215	3,66300366300365
0,022	-1,22100122100122
0,0225	-6,10500610500608
0,023	-10,989010989011
0,0235	-10,989010989011
0,024	-10,989010989011
0,0245	-10,989010989011
0,025	-6,10500610500608
0,0255	-1,22100122100122
0,026	8,54700854700852
0,0265	8,54700854700852
0,027	13,4310134310134
0,0275	18,3150183150183
0,028	18,3150183150183
0,0285	18,3150183150183
0,029	18,3150183150183
0,0295	13,4310134310134
0,03	13,4310134310134
0,0305	13,4310134310134
0,031	8,54700854700852
0,0315	8,54700854700852
0,032	8,54700854700852
0,0325	3,66300366300365
0,033	3,66300366300365
0,0335	3,66300366300365
0,034	3,66300366300365
0,0345	-1,22100122100122
0,035	-10,989010989011
0,0355	-10,989010989011
0,036	-10,989010989011
0,0365	-10,989010989011
0,037	-10,989010989011
0,0375	-6,10500610500608
0,038	-1,22100122100122
0,0385	3,66300366300365
0,039	8,54700854700852
0,0395	8,54700854700852
0,04	8,54700854700852
0,0405	8,54700854700852
0,041	8,54700854700852
0,0415	8,54700854700852
0,042	13,4310134310134
0,0425	13,4310134310134
0,043	13,4310134310134
0,0435	3,66300366300365
0,044	-6,10500610500608
0,0445	-10,989010989011
0,045	-10,989010989011
0,0455	-1,22100122100122
0,046	3,66300366300365
0,0465	8,54700854700852
0,047	8,54700854700852
0,0475	8,54700854700852
0,048	8,54700854700852
0,0485	8,54700854700852
0,049	8,54700854700852
0,0495	8,54700854700852
0,05	8,54700854700852
0,0505	8,54700854700852
0,051	8,54700854700852
0,0515	8,54700854700852
0,052	3,66300366300365
0,0525	8,54700854700852
0,053	8,54700854700852
0,0535	8,54700854700852
0,054	3,66300366300365
0,0545	3,66300366300365
0,055	3,66300366300365
0,0555	3,66300366300365
0,056	8,54700854700852
0,0565	3,66300366300365
0,057	3,66300366300365
0,0575	3,66300366300365
0,058	3,66300366300365
0,0585	3,66300366300365
0,059	3,66300366300365
0,0595	3,66300366300365
0,06	-6,10500610500608
0,0605	3,66300366300365
0,061	3,66300366300365
0,0615	3,66300366300365
0,062	3,66300366300365
0,0625	3,66300366300365
0,063	3,66300366300365
0,0635	-1,22100122100122
0,064	-10,989010989011
0,0645	-10,989010989011
0,065	-10,989010989011
0,0655	-10,989010989011
0,066	-6,10500610500608
0,0665	-1,22100122100122
0,067	-1,22100122100122
0,0675	3,66300366300365
0,068	13,4310134310134
0,0685	23,1990231990231
0,069	32,9670329670329
0,0695	28,083028083028
0,07	18,3150183150183
0,0705	8,54700854700852
0,071	3,66300366300365
0,0715	8,54700854700852
0,072	3,66300366300365
0,0725	3,66300366300365
0,073	3,66300366300365
0,0735	8,54700854700852
0,074	13,4310134310134
0,0745	18,3150183150183
0,075	23,1990231990231
0,0755	23,1990231990231
0,076	13,4310134310134
0,0765	3,66300366300365
0,077	-10,989010989011
0,0775	-10,989010989011
0,078	-10,989010989011
0,0785	-15,8730158730158
0,079	-20,7570207570207
0,0795	-30,5250305250304
0,08	-25,6410256410256
0,0805	-15,8730158730158
0,081	-6,10500610500608
0,0815	3,66300366300365
0,082	13,4310134310134
0,0825	13,4310134310134
0,083	18,3150183150183
0,0835	13,4310134310134
0,084	8,54700854700852
0,0845	8,54700854700852
0,085	8,54700854700852
0,0855	3,66300366300365
0,086	-1,22100122100122
0,0865	3,66300366300365
0,087	3,66300366300365
0,0875	3,66300366300365
0,088	3,66300366300365
0,0885	8,54700854700852
0,089	8,54700854700852
0,0895	8,54700854700852
0,09	13,4310134310134
0,0905	18,3150183150183
0,091	23,1990231990231
0,0915	23,1990231990231
0,092	28,083028083028
0,0925	23,1990231990231
0,093	23,1990231990231
0,0935	18,3150183150183
0,094	3,66300366300365
0,0945	-1,22100122100122
0,095	-6,10500610500608
0,0955	-6,10500610500608
0,096	-6,10500610500608
0,0965	3,66300366300365
0,097	-1,22100122100122
0,0975	-1,22100122100122
0,098	-1,22100122100122
0,0985	-6,10500610500608
0,099	-6,10500610500608
0,0995	-6,10500610500608
0,1	-10,989010989011
0,1005	-10,989010989011
0,101	-10,989010989011
0,1015	-10,989010989011
0,102	-10,989010989011
0,1025	-10,989010989011
0,103	-15,8730158730158
0,1035	-10,989010989011
0,104	-6,10500610500608
0,1045	-1,22100122100122
0,105	8,54700854700852
0,1055	13,4310134310134
0,106	18,3150183150183
0,1065	23,1990231990231
0,107	23,1990231990231
0,1075	18,3150183150183
0,108	18,3150183150183
0,1085	18,3150183150183
0,109	13,4310134310134
0,1095	8,54700854700852
0,11	3,66300366300365
0,1105	3,66300366300365
0,111	8,54700854700852
0,1115	13,4310134310134
0,112	8,54700854700852
0,1125	3,66300366300365
0,113	3,66300366300365
0,1135	3,66300366300365
0,114	3,66300366300365
0,1145	3,66300366300365
0,115	3,66300366300365
0,1155	3,66300366300365
0,116	3,66300366300365
0,1165	8,54700854700852
0,117	13,4310134310134
0,1175	18,3150183150183
0,118	23,1990231990231
0,1185	23,1990231990231
0,119	23,1990231990231
0,1195	23,1990231990231
0,12	18,3150183150183
0,1205	8,54700854700852
0,121	-1,22100122100122
0,1215	-6,10500610500608
0,122	-10,989010989011
0,1225	-15,8730158730158
0,123	-15,8730158730158
0,1235	-15,8730158730158
0,124	-10,989010989011
0,1245	-10,989010989011
0,125	-10,989010989011
0,1255	-15,8730158730158
0,126	-15,8730158730158
0,1265	-10,989010989011
0,127	-6,10500610500608
0,1275	3,66300366300365
0,128	3,66300366300365
0,1285	8,54700854700852
0,129	18,3150183150183
0,1295	28,083028083028
0,13	37,8510378510377
0,1305	42,7350427350426
0,131	32,9670329670329
0,1315	23,1990231990231
0,132	18,3150183150183
0,1325	18,3150183150183
0,133	13,4310134310134
0,1335	8,54700854700852
0,134	8,54700854700852
0,1345	3,66300366300365
0,135	3,66300366300365
0,1355	3,66300366300365
0,136	-1,22100122100122
0,1365	3,66300366300365
0,137	-1,22100122100122
0,1375	-6,10500610500608
0,138	-6,10500610500608
0,1385	-6,10500610500608
0,139	-6,10500610500608
0,1395	-6,10500610500608
0,14	-6,10500610500608
0,1405	-6,10500610500608
0,141	3,66300366300365
0,1415	8,54700854700852
0,142	8,54700854700852
0,1425	8,54700854700852
0,143	13,4310134310134
0,1435	18,3150183150183
0,144	18,3150183150183
0,1445	13,4310134310134
0,145	13,4310134310134
0,1455	8,54700854700852
0,146	8,54700854700852
0,1465	8,54700854700852
0,147	3,66300366300365
0,1475	3,66300366300365
0,148	-1,22100122100122
0,1485	-10,989010989011
0,149	-10,989010989011
0,1495	-10,989010989011
0,15	-6,10500610500608
0,1505	-1,22100122100122
0,151	-1,22100122100122
0,1515	3,66300366300365
0,152	3,66300366300365
0,1525	3,66300366300365
0,153	-6,10500610500608
0,1535	-6,10500610500608
0,154	-6,10500610500608
0,1545	-1,22100122100122
0,155	3,66300366300365
0,1555	8,54700854700852
0,156	13,4310134310134
0,1565	18,3150183150183
0,157	18,3150183150183
0,1575	13,4310134310134
0,158	8,54700854700852
0,1585	8,54700854700852
0,159	3,66300366300365
0,1595	3,66300366300365
0,16	3,66300366300365
0,1605	3,66300366300365
0,161	3,66300366300365
0,1615	3,66300366300365
0,162	3,66300366300365
0,1625	3,66300366300365
0,163	3,66300366300365
0,1635	8,54700854700852
0,164	8,54700854700852
0,1645	8,54700854700852
0,165	3,66300366300365
0,1655	3,66300366300365
0,166	3,66300366300365
0,1665	3,66300366300365
0,167	3,66300366300365
0,1675	8,54700854700852
0,168	3,66300366300365
0,1685	8,54700854700852
0,169	3,66300366300365
0,1695	8,54700854700852
0,17	8,54700854700852
0,1705	3,66300366300365
0,171	3,66300366300365
0,1715	3,66300366300365
0,172	3,66300366300365
0,1725	-1,22100122100122
0,173	3,66300366300365
0,1735	3,66300366300365
0,174	3,66300366300365
0,1745	8,54700854700852
0,175	8,54700854700852
0,1755	8,54700854700852
0,176	8,54700854700852
0,1765	8,54700854700852
0,177	13,4310134310134
0,1775	13,4310134310134
0,178	8,54700854700852
0,1785	8,54700854700852
0,179	8,54700854700852
0,1795	3,66300366300365
0,18	-1,22100122100122
0,1805	-6,10500610500608
0,181	-10,989010989011
0,1815	-1,22100122100122
0,182	-1,22100122100122
0,1825	3,66300366300365
0,183	8,54700854700852
0,1835	8,54700854700852
0,184	8,54700854700852
0,1845	8,54700854700852
0,185	-1,22100122100122
0,1855	-10,989010989011
0,186	-15,8730158730158
0,1865	-25,6410256410256
0,187	-25,6410256410256
0,1875	-20,7570207570207
0,188	-10,989010989011
0,1885	-1,22100122100122
0,189	8,54700854700852
0,1895	8,54700854700852
0,19	18,3150183150183
0,1905	18,3150183150183
0,191	23,1990231990231
0,1915	28,083028083028
0,192	23,1990231990231
0,1925	23,1990231990231
0,193	23,1990231990231
0,1935	18,3150183150183
0,194	8,54700854700852
0,1945	8,54700854700852
0,195	-1,22100122100122
0,1955	-10,989010989011
0,196	-15,8730158730158
0,1965	-25,6410256410256
0,197	-25,6410256410256
0,1975	-15,8730158730158
0,198	-10,989010989011
0,1985	-10,989010989011
0,199	3,66300366300365
0,1995	13,4310134310134
0,2	18,3150183150183
0,2005	18,3150183150183
0,201	23,1990231990231
0,2015	23,1990231990231
0,202	28,083028083028
0,2025	23,1990231990231
0,203	18,3150183150183
0,2035	23,1990231990231
0,204	23,1990231990231
0,2045	18,3150183150183
0,205	8,54700854700852
0,2055	-1,22100122100122
0,206	-10,989010989011
0,2065	-10,989010989011
0,207	-6,10500610500608
0,2075	3,66300366300365
0,208	3,66300366300365
0,2085	8,54700854700852
0,209	8,54700854700852
0,2095	3,66300366300365
0,21	3,66300366300365
0,2105	3,66300366300365
0,211	3,66300366300365
0,2115	3,66300366300365
0,212	3,66300366300365
0,2125	13,4310134310134
0,213	23,1990231990231
0,2135	32,9670329670329
0,214	32,9670329670329
0,2145	28,083028083028
0,215	18,3150183150183
0,2155	8,54700854700852
0,216	3,66300366300365
0,2165	3,66300366300365
0,217	-6,10500610500608
0,2175	-6,10500610500608
0,218	-6,10500610500608
0,2185	-6,10500610500608
0,219	-1,22100122100122
0,2195	3,66300366300365
0,22	3,66300366300365
0,2205	-10,989010989011
0,221	-10,989010989011
0,2215	-10,989010989011
0,222	-6,10500610500608
0,2225	-6,10500610500608
0,223	-1,22100122100122
0,2235	3,66300366300365
0,224	3,66300366300365
0,2245	3,66300366300365
0,225	3,66300366300365
0,2255	3,66300366300365
0,226	3,66300366300365
0,2265	3,66300366300365
0,227	-6,10500610500608
0,2275	-6,10500610500608
0,228	-1,22100122100122
0,2285	3,66300366300365
0,229	3,66300366300365
0,2295	3,66300366300365
0,23	3,66300366300365
0,2305	3,66300366300365
0,231	3,66300366300365
0,2315	8,54700854700852
0,232	8,54700854700852
0,2325	8,54700854700852
0,233	8,54700854700852
0,2335	8,54700854700852
0,234	8,54700854700852
0,2345	-1,22100122100122
0,235	-6,10500610500608
0,2355	-6,10500610500608
0,236	-1,22100122100122
0,2365	-1,22100122100122
0,237	3,66300366300365
0,2375	3,66300366300365
0,238	3,66300366300365
0,2385	3,66300366300365
0,239	3,66300366300365
0,2395	8,54700854700852
0,24	8,54700854700852
0,2405	13,4310134310134
0,241	8,54700854700852
0,2415	8,54700854700852
0,242	8,54700854700852
0,2425	13,4310134310134
0,243	13,4310134310134
0,2435	18,3150183150183
0,244	18,3150183150183
0,2445	18,3150183150183
0,245	13,4310134310134
0,2455	13,4310134310134
0,246	13,4310134310134
0,2465	8,54700854700852
0,247	8,54700854700852
0,2475	-1,22100122100122
0,248	-10,989010989011
0,2485	-15,8730158730158
0,249	-15,8730158730158
0,2495	-10,989010989011
0,25	-10,989010989011
0,2505	-6,10500610500608
0,251	-6,10500610500608
0,2515	-6,10500610500608
0,252	-6,10500610500608
0,2525	-6,10500610500608
0,253	-10,989010989011
0,2535	-10,989010989011
0,254	-10,989010989011
0,2545	-6,10500610500608
0,255	3,66300366300365
0,2555	8,54700854700852
0,256	18,3150183150183
0,2565	18,3150183150183
0,257	23,1990231990231
0,2575	23,1990231990231
0,258	23,1990231990231
0,2585	23,1990231990231
0,259	18,3150183150183
0,2595	13,4310134310134
0,26	8,54700854700852
0,2605	8,54700854700852
0,261	13,4310134310134
0,2615	13,4310134310134
0,262	3,66300366300365
0,2625	-1,22100122100122
0,263	-10,989010989011
0,2635	-10,989010989011
0,264	-15,8730158730158
0,2645	-25,6410256410256
0,265	-30,5250305250304
0,2655	-20,7570207570207
0,266	-10,989010989011
0,2665	-6,10500610500608
0,267	3,66300366300365
0,2675	3,66300366300365
0,268	8,54700854700852
0,2685	23,1990231990231
0,269	37,8510378510377
0,2695	42,7350427350426
0,27	42,7350427350426
0,2705	28,083028083028
0,271	18,3150183150183
0,2715	18,3150183150183
0,272	13,4310134310134
0,2725	8,54700854700852
0,273	3,66300366300365
0,2735	3,66300366300365
0,274	3,66300366300365
0,2745	3,66300366300365
0,275	8,54700854700852
0,2755	18,3150183150183
0,276	13,4310134310134
0,2765	8,54700854700852
0,277	8,54700854700852
0,2775	3,66300366300365
0,278	3,66300366300365
0,2785	3,66300366300365
0,279	3,66300366300365
0,2795	3,66300366300365
0,28	-1,22100122100122
0,2805	-6,10500610500608
0,281	-6,10500610500608
0,2815	-6,10500610500608
0,282	-6,10500610500608
0,2825	-1,22100122100122
0,283	-1,22100122100122
0,2835	-1,22100122100122
0,284	-1,22100122100122
0,2845	3,66300366300365
0,285	-1,22100122100122
0,2855	3,66300366300365
0,286	3,66300366300365
0,2865	8,54700854700852
0,287	8,54700854700852
0,2875	13,4310134310134
0,288	13,4310134310134
0,2885	13,4310134310134
0,289	8,54700854700852
0,2895	8,54700854700852
0,29	3,66300366300365
0,2905	3,66300366300365
0,291	3,66300366300365
0,2915	3,66300366300365
0,292	3,66300366300365
0,2925	8,54700854700852
0,293	8,54700854700852
0,2935	3,66300366300365
0,294	-6,10500610500608
0,2945	-10,989010989011
0,295	-10,989010989011
0,2955	-10,989010989011
0,296	-1,22100122100122
0,2965	3,66300366300365
0,297	3,66300366300365
0,2975	8,54700854700852
0,298	8,54700854700852
0,2985	8,54700854700852
0,299	8,54700854700852
0,2995	8,54700854700852
0,3	8,54700854700852
0,3005	3,66300366300365
0,301	3,66300366300365
0,3015	3,66300366300365
0,302	-1,22100122100122
0,3025	-1,22100122100122
0,303	3,66300366300365
0,3035	3,66300366300365
0,304	3,66300366300365
0,3045	3,66300366300365
0,305	3,66300366300365
0,3055	8,54700854700852
0,306	8,54700854700852
0,3065	8,54700854700852
0,307	3,66300366300365
0,3075	-1,22100122100122
0,308	-1,22100122100122
0,3085	3,66300366300365
0,309	-1,22100122100122
0,3095	3,66300366300365
0,31	-1,22100122100122
0,3105	-1,22100122100122
0,311	3,66300366300365
0,3115	3,66300366300365
0,312	8,54700854700852
0,3125	13,4310134310134
0,313	13,4310134310134
0,3135	13,4310134310134
0,314	18,3150183150183
0,3145	18,3150183150183
0,315	13,4310134310134
0,3155	8,54700854700852
0,316	13,4310134310134
0,3165	8,54700854700852
0,317	-6,10500610500608
0,3175	-10,989010989011
0,318	-10,989010989011
0,3185	-6,10500610500608
0,319	-6,10500610500608
0,3195	-6,10500610500608
0,32	-6,10500610500608
0,3205	-6,10500610500608
0,321	-1,22100122100122
0,3215	-1,22100122100122
0,322	-1,22100122100122
0,3225	-1,22100122100122
0,323	3,66300366300365
0,3235	8,54700854700852
0,324	18,3150183150183
0,3245	23,1990231990231
0,325	23,1990231990231
0,3255	18,3150183150183
0,326	-1,22100122100122
0,3265	-10,989010989011
0,327	-15,8730158730158
0,3275	-20,7570207570207
0,328	-10,989010989011
0,3285	3,66300366300365
0,329	13,4310134310134
0,3295	23,1990231990231
0,33	28,083028083028
0,3305	28,083028083028
0,331	28,083028083028
0,3315	18,3150183150183
0,332	8,54700854700852
0,3325	8,54700854700852
0,333	3,66300366300365
0,3335	-6,10500610500608
0,334	-10,989010989011
0,3345	-15,8730158730158
0,335	-10,989010989011
0,3355	-10,989010989011
0,336	-6,10500610500608
0,3365	-6,10500610500608
0,337	3,66300366300365
0,3375	3,66300366300365
0,338	3,66300366300365
0,3385	3,66300366300365
0,339	-1,22100122100122
0,3395	3,66300366300365
0,34	13,4310134310134
0,3405	18,3150183150183
0,341	23,1990231990231
0,3415	28,083028083028
0,342	32,9670329670329
0,3425	42,7350427350426
0,343	47,6190476190475
0,3435	54,9450549450548
0,344	47,6190476190475
0,3445	28,083028083028
0,345	3,66300366300365
0,3455	-10,989010989011
0,346	-10,989010989011
0,3465	-20,7570207570207
0,347	-25,6410256410256
0,3475	-30,5250305250304
0,348	-30,5250305250304
0,3485	-30,5250305250304
0,349	-30,5250305250304
0,3495	-20,7570207570207
0,35	-10,989010989011
0,3505	-1,22100122100122
0,351	3,66300366300365
0,3515	8,54700854700852
0,352	8,54700854700852
0,3525	8,54700854700852
0,353	8,54700854700852
0,3535	13,4310134310134
0,354	18,3150183150183
0,3545	18,3150183150183
0,355	13,4310134310134
0,3555	8,54700854700852
0,356	8,54700854700852
0,3565	8,54700854700852
0,357	8,54700854700852
0,3575	8,54700854700852
0,358	3,66300366300365
0,3585	3,66300366300365
0,359	3,66300366300365
0,3595	3,66300366300365
0,36	8,54700854700852
0,3605	8,54700854700852
0,361	8,54700854700852
0,3615	8,54700854700852
0,362	8,54700854700852
0,3625	8,54700854700852
0,363	8,54700854700852
0,3635	8,54700854700852
0,364	8,54700854700852
0,3645	8,54700854700852
0,365	8,54700854700852
0,3655	8,54700854700852
0,366	13,4310134310134
0,3665	18,3150183150183
0,367	18,3150183150183
0,3675	8,54700854700852
0,368	3,66300366300365
0,3685	-1,22100122100122
0,369	-6,10500610500608
0,3695	-6,10500610500608
0,37	-6,10500610500608
0,3705	-1,22100122100122
0,371	-6,10500610500608
0,3715	-10,989010989011
0,372	-10,989010989011
0,3725	-10,989010989011
0,373	-15,8730158730158
0,3735	-15,8730158730158
0,374	-10,989010989011
0,3745	-10,989010989011
0,375	-10,989010989011
0,3755	-10,989010989011
0,376	-6,10500610500608
0,3765	-1,22100122100122
0,377	3,66300366300365
0,3775	8,54700854700852
0,378	13,4310134310134
0,3785	13,4310134310134
0,379	23,1990231990231
0,3795	23,1990231990231
0,38	23,1990231990231
0,3805	23,1990231990231
0,381	23,1990231990231
0,3815	23,1990231990231
0,382	13,4310134310134
0,3825	3,66300366300365
0,383	-1,22100122100122
0,3835	-1,22100122100122
0,384	-6,10500610500608
0,3845	-6,10500610500608
0,385	-1,22100122100122
0,3855	3,66300366300365
0,386	3,66300366300365
0,3865	3,66300366300365
0,387	3,66300366300365
0,3875	3,66300366300365
0,388	3,66300366300365
0,3885	3,66300366300365
0,389	13,4310134310134
0,3895	18,3150183150183
0,39	18,3150183150183
0,3905	18,3150183150183
0,391	18,3150183150183
0,3915	13,4310134310134
0,392	8,54700854700852
0,3925	-1,22100122100122
0,393	-6,10500610500608
0,3935	-10,989010989011
0,394	-10,989010989011
0,3945	-10,989010989011
0,395	-10,989010989011
0,3955	-15,8730158730158
0,396	-10,989010989011
0,3965	3,66300366300365
0,397	23,1990231990231
0,3975	32,9670329670329
0,398	28,083028083028
0,3985	23,1990231990231
0,399	8,54700854700852
0,3995	3,66300366300365
0,4	3,66300366300365
0,4005	3,66300366300365
0,401	-1,22100122100122
0,4015	-1,22100122100122
0,402	3,66300366300365
0,4025	8,54700854700852
0,403	13,4310134310134
0,4035	13,4310134310134
0,404	18,3150183150183
0,4045	13,4310134310134
0,405	8,54700854700852
0,4055	3,66300366300365
0,406	-1,22100122100122
0,4065	-1,22100122100122
0,407	3,66300366300365
0,4075	3,66300366300365
0,408	-1,22100122100122
0,4085	-6,10500610500608
0,409	-6,10500610500608
0,4095	-6,10500610500608
0,41	-6,10500610500608
0,4105	-1,22100122100122
0,411	3,66300366300365
0,4115	3,66300366300365
0,412	3,66300366300365
0,4125	3,66300366300365
0,413	3,66300366300365
0,4135	3,66300366300365
0,414	3,66300366300365
0,4145	3,66300366300365
0,415	3,66300366300365
0,4155	3,66300366300365
0,416	3,66300366300365
0,4165	13,4310134310134
0,417	18,3150183150183
0,4175	23,1990231990231
0,418	23,1990231990231
0,4185	23,1990231990231
0,419	23,1990231990231
0,4195	23,1990231990231
0,42	18,3150183150183
0,4205	18,3150183150183
0,421	13,4310134310134
0,4215	8,54700854700852
0,422	3,66300366300365
0,4225	-1,22100122100122
0,423	-15,8730158730158
0,4235	-30,5250305250304
0,424	-40,2930402930402
0,4245	-45,177045177045
0,425	-40,2930402930402
0,4255	-30,5250305250304
0,426	-30,5250305250304
0,4265	-20,7570207570207
0,427	-15,8730158730158
0,4275	-10,989010989011
0,428	-1,22100122100122
0,4285	3,66300366300365
0,429	8,54700854700852
0,4295	18,3150183150183
0,43	23,1990231990231
0,4305	23,1990231990231
0,431	23,1990231990231
0,4315	18,3150183150183
0,432	13,4310134310134
0,4325	18,3150183150183
0,433	18,3150183150183
0,4335	18,3150183150183
0,434	8,54700854700852
0,4345	13,4310134310134
0,435	13,4310134310134
0,4355	18,3150183150183
0,436	13,4310134310134
0,4365	13,4310134310134
0,437	8,54700854700852
0,4375	8,54700854700852
0,438	8,54700854700852
0,4385	8,54700854700852
0,439	18,3150183150183
0,4395	23,1990231990231
0,44	23,1990231990231
0,4405	23,1990231990231
0,441	13,4310134310134
0,4415	3,66300366300365
0,442	-6,10500610500608
0,4425	-1,22100122100122
0,443	8,54700854700852
0,4435	18,3150183150183
0,444	18,3150183150183
0,4445	18,3150183150183
0,445	8,54700854700852
0,4455	3,66300366300365
0,446	3,66300366300365
0,4465	-1,22100122100122
0,447	-10,989010989011
0,4475	-20,7570207570207
0,448	-30,5250305250304
0,4485	-30,5250305250304
0,449	-25,6410256410256
0,4495	-10,989010989011
0,45	-1,22100122100122
0,4505	18,3150183150183
0,451	32,9670329670329
0,4515	37,8510378510377
0,452	32,9670329670329
0,4525	23,1990231990231
0,453	18,3150183150183
0,4535	8,54700854700852
0,454	3,66300366300365
0,4545	-1,22100122100122
0,455	-1,22100122100122
0,4555	-6,10500610500608
0,456	-6,10500610500608
0,4565	-1,22100122100122
0,457	-1,22100122100122
0,4575	-1,22100122100122
0,458	3,66300366300365
0,4585	3,66300366300365
0,459	8,54700854700852
0,4595	8,54700854700852
0,46	8,54700854700852
0,4605	8,54700854700852
0,461	8,54700854700852
0,4615	8,54700854700852
0,462	3,66300366300365
0,4625	-1,22100122100122
0,463	-1,22100122100122
0,4635	-1,22100122100122
0,464	-1,22100122100122
0,4645	-1,22100122100122
0,465	8,54700854700852
0,4655	8,54700854700852
0,466	13,4310134310134
0,4665	13,4310134310134
0,467	3,66300366300365
0,4675	3,66300366300365
0,468	-1,22100122100122
0,4685	-10,989010989011
0,469	-10,989010989011
0,4695	-10,989010989011
0,47	-10,989010989011
0,4705	-6,10500610500608
0,471	-10,989010989011
0,4715	-6,10500610500608
0,472	-1,22100122100122
0,4725	-1,22100122100122
0,473	3,66300366300365
0,4735	8,54700854700852
0,474	18,3150183150183
0,4745	23,1990231990231
0,475	28,083028083028
0,4755	23,1990231990231
0,476	18,3150183150183
0,4765	8,54700854700852
0,477	8,54700854700852
0,4775	8,54700854700852
0,478	3,66300366300365
0,4785	3,66300366300365
0,479	3,66300366300365
0,4795	3,66300366300365
0,48	3,66300366300365
0,4805	3,66300366300365
0,481	3,66300366300365
0,4815	3,66300366300365
0,482	3,66300366300365
0,4825	-6,10500610500608
0,483	-10,989010989011
0,4835	-10,989010989011
0,484	-10,989010989011
0,4845	-6,10500610500608
0,485	-1,22100122100122
0,4855	3,66300366300365
0,486	3,66300366300365
0,4865	8,54700854700852
0,487	8,54700854700852
0,4875	8,54700854700852
0,488	8,54700854700852
0,4885	8,54700854700852
0,489	13,4310134310134
0,4895	8,54700854700852
0,49	-1,22100122100122
0,4905	-6,10500610500608
0,491	-1,22100122100122
0,4915	3,66300366300365
0,492	8,54700854700852
0,4925	13,4310134310134
0,493	18,3150183150183
0,4935	18,3150183150183
0,494	18,3150183150183
0,4945	18,3150183150183
0,495	13,4310134310134
0,4955	13,4310134310134
0,496	8,54700854700852
0,4965	3,66300366300365
0,497	-1,22100122100122
0,4975	-6,10500610500608
0,498	-10,989010989011
0,4985	-10,989010989011
0,499	-10,989010989011
0,4995	-15,8730158730158
0,5	-20,7570207570207
0,5005	-15,8730158730158
0,501	-10,989010989011
0,5015	-10,989010989011
0,502	-1,22100122100122
0,5025	8,54700854700852
0,503	18,3150183150183
0,5035	18,3150183150183
0,504	18,3150183150183
0,5045	13,4310134310134
0,505	8,54700854700852
0,5055	8,54700854700852
0,506	8,54700854700852
0,5065	8,54700854700852
0,507	13,4310134310134
0,5075	18,3150183150183
0,508	18,3150183150183
0,5085	23,1990231990231
0,509	18,3150183150183
0,5095	23,1990231990231
0,51	18,3150183150183
0,5105	13,4310134310134
0,511	8,54700854700852
0,5115	3,66300366300365
0,512	3,66300366300365
0,5125	-1,22100122100122
0,513	-10,989010989011
0,5135	-10,989010989011
0,514	-20,7570207570207
0,5145	-15,8730158730158
0,515	-10,989010989011
0,5155	-6,10500610500608
0,516	-1,22100122100122
0,5165	-1,22100122100122
0,517	-1,22100122100122
0,5175	3,66300366300365
0,518	3,66300366300365
0,5185	8,54700854700852
0,519	8,54700854700852
0,5195	3,66300366300365
0,52	3,66300366300365
0,5205	3,66300366300365
0,521	8,54700854700852
0,5215	3,66300366300365
0,522	3,66300366300365
0,5225	3,66300366300365
0,523	3,66300366300365
0,5235	8,54700854700852
0,524	8,54700854700852
0,5245	3,66300366300365
0,525	3,66300366300365
0,5255	3,66300366300365
0,526	8,54700854700852
0,5265	8,54700854700852
0,527	13,4310134310134
0,5275	18,3150183150183
0,528	18,3150183150183
0,5285	18,3150183150183
0,529	18,3150183150183
0,5295	8,54700854700852
0,53	-6,10500610500608
0,5305	-15,8730158730158
0,531	-10,989010989011
0,5315	-6,10500610500608
0,532	-1,22100122100122
0,5325	3,66300366300365
0,533	3,66300366300365
0,5335	8,54700854700852
0,534	3,66300366300365
0,5345	-1,22100122100122
0,535	-1,22100122100122
0,5355	3,66300366300365
0,536	3,66300366300365
0,5365	3,66300366300365
0,537	8,54700854700852
0,5375	8,54700854700852
0,538	18,3150183150183
0,5385	18,3150183150183
0,539	18,3150183150183
0,5395	23,1990231990231
0,54	18,3150183150183
0,5405	18,3150183150183
0,541	8,54700854700852
0,5415	13,4310134310134
0,542	8,54700854700852
0,5425	8,54700854700852
0,543	3,66300366300365
0,5435	3,66300366300365
0,544	3,66300366300365
0,5445	3,66300366300365
0,545	3,66300366300365
0,5455	3,66300366300365
0,546	-1,22100122100122
0,5465	-6,10500610500608
0,547	-10,989010989011
0,5475	-10,989010989011
0,548	-10,989010989011
0,5485	-6,10500610500608
0,549	-1,22100122100122
0,5495	-1,22100122100122
0,55	3,66300366300365
0,5505	3,66300366300365
0,551	8,54700854700852
0,5515	3,66300366300365
0,552	3,66300366300365
0,5525	3,66300366300365
0,553	3,66300366300365
0,5535	3,66300366300365
0,554	8,54700854700852
0,5545	8,54700854700852
0,555	8,54700854700852
0,5555	8,54700854700852
0,556	8,54700854700852
0,5565	3,66300366300365
0,557	3,66300366300365
0,5575	-1,22100122100122
0,558	3,66300366300365
0,5585	3,66300366300365
0,559	3,66300366300365
0,5595	8,54700854700852
0,56	8,54700854700852
0,5605	3,66300366300365
0,561	3,66300366300365
0,5615	8,54700854700852
0,562	3,66300366300365
0,5625	3,66300366300365
0,563	3,66300366300365
0,5635	3,66300366300365
0,564	3,66300366300365
0,5645	3,66300366300365
0,565	3,66300366300365
0,5655	-6,10500610500608
0,566	-6,10500610500608
0,5665	-1,22100122100122
0,567	3,66300366300365
0,5675	8,54700854700852
0,568	8,54700854700852
0,5685	13,4310134310134
0,569	13,4310134310134
0,5695	8,54700854700852
0,57	8,54700854700852
0,5705	3,66300366300365
0,571	-1,22100122100122
0,5715	-6,10500610500608
0,572	-1,22100122100122
0,5725	3,66300366300365
0,573	8,54700854700852
0,5735	18,3150183150183
0,574	13,4310134310134
0,5745	8,54700854700852
0,575	3,66300366300365
0,5755	8,54700854700852
0,576	18,3150183150183
0,5765	18,3150183150183
0,577	13,4310134310134
0,5775	8,54700854700852
0,578	3,66300366300365
0,5785	3,66300366300365
0,579	-6,10500610500608
0,5795	-10,989010989011
0,58	-15,8730158730158
0,5805	-20,7570207570207
0,581	-30,5250305250304
0,5815	-30,5250305250304
0,582	-30,5250305250304
0,5825	-20,7570207570207
0,583	-15,8730158730158
0,5835	-10,989010989011
0,584	3,66300366300365
0,5845	8,54700854700852
0,585	8,54700854700852
0,5855	8,54700854700852
0,586	8,54700854700852
0,5865	13,4310134310134
0,587	13,4310134310134
0,5875	13,4310134310134
0,588	13,4310134310134
0,5885	18,3150183150183
0,589	18,3150183150183
0,5895	18,3150183150183
0,59	18,3150183150183
0,5905	8,54700854700852
0,591	8,54700854700852
0,5915	13,4310134310134
0,592	8,54700854700852
0,5925	13,4310134310134
0,593	13,4310134310134
0,5935	18,3150183150183
0,594	13,4310134310134
0,5945	8,54700854700852
0,595	3,66300366300365
0,5955	-1,22100122100122
0,596	-1,22100122100122
0,5965	3,66300366300365
0,597	8,54700854700852
0,5975	8,54700854700852
0,598	8,54700854700852
0,5985	8,54700854700852
0,599	8,54700854700852
0,5995	8,54700854700852
0,6	8,54700854700852
0,6005	8,54700854700852
0,601	3,66300366300365
0,6015	3,66300366300365
0,602	3,66300366300365
0,6025	3,66300366300365
0,603	3,66300366300365
0,6035	3,66300366300365
0,604	3,66300366300365
0,6045	3,66300366300365
0,605	3,66300366300365
0,6055	3,66300366300365
0,606	3,66300366300365
0,6065	-1,22100122100122
0,607	3,66300366300365
0,6075	8,54700854700852
0,608	13,4310134310134
0,6085	18,3150183150183
0,609	18,3150183150183
0,6095	18,3150183150183
0,61	18,3150183150183
0,6105	13,4310134310134
0,611	13,4310134310134
0,6115	13,4310134310134
0,612	8,54700854700852
0,6125	3,66300366300365
0,613	-1,22100122100122
0,6135	-6,10500610500608
0,614	-6,10500610500608
0,6145	-10,989010989011
0,615	-15,8730158730158
0,6155	-10,989010989011
0,616	-10,989010989011
0,6165	-1,22100122100122
0,617	3,66300366300365
0,6175	3,66300366300365
0,618	3,66300366300365
0,6185	3,66300366300365
0,619	8,54700854700852
0,6195	18,3150183150183
0,62	18,3150183150183
0,6205	18,3150183150183
0,621	8,54700854700852
0,6215	-6,10500610500608
0,622	-10,989010989011
0,6225	-10,989010989011
0,623	-6,10500610500608
0,6235	-1,22100122100122
0,624	3,66300366300365
0,6245	3,66300366300365
0,625	-6,10500610500608
0,6255	-10,989010989011
0,626	-10,989010989011
0,6265	-10,989010989011
0,627	-6,10500610500608
0,6275	3,66300366300365
0,628	8,54700854700852
0,6285	8,54700854700852
0,629	8,54700854700852
0,6295	3,66300366300365
0,63	3,66300366300365
0,6305	3,66300366300365
0,631	3,66300366300365
0,6315	8,54700854700852
0,632	8,54700854700852
0,6325	8,54700854700852
0,633	8,54700854700852
0,6335	8,54700854700852
0,634	8,54700854700852
0,6345	8,54700854700852
0,635	8,54700854700852
0,6355	3,66300366300365
0,636	8,54700854700852
0,6365	8,54700854700852
0,637	8,54700854700852
0,6375	3,66300366300365
0,638	3,66300366300365
0,6385	8,54700854700852
0,639	3,66300366300365
0,6395	3,66300366300365
0,64	3,66300366300365
0,6405	3,66300366300365
0,641	3,66300366300365
0,6415	-1,22100122100122
0,642	-1,22100122100122
0,6425	-6,10500610500608
0,643	3,66300366300365
0,6435	3,66300366300365
0,644	3,66300366300365
0,6445	3,66300366300365
0,645	8,54700854700852
0,6455	18,3150183150183
0,646	23,1990231990231
0,6465	23,1990231990231
0,647	23,1990231990231
0,6475	18,3150183150183
0,648	13,4310134310134
0,6485	13,4310134310134
0,649	18,3150183150183
0,6495	23,1990231990231
0,65	18,3150183150183
0,6505	18,3150183150183
0,651	8,54700854700852
0,6515	3,66300366300365
0,652	-1,22100122100122
0,6525	-1,22100122100122
0,653	-10,989010989011
0,6535	-15,8730158730158
0,654	-20,7570207570207
0,6545	-20,7570207570207
0,655	-15,8730158730158
0,6555	-15,8730158730158
0,656	-10,989010989011
0,6565	-1,22100122100122
0,657	8,54700854700852
0,6575	8,54700854700852
0,658	-1,22100122100122
0,6585	-10,989010989011
0,659	-20,7570207570207
0,6595	-25,6410256410256
0,66	-15,8730158730158
0,6605	-10,989010989011
0,661	-10,989010989011
0,6615	-10,989010989011
0,662	-6,10500610500608
0,6625	-1,22100122100122
0,663	8,54700854700852
0,6635	18,3150183150183
0,664	18,3150183150183
0,6645	23,1990231990231
0,665	18,3150183150183
0,6655	18,3150183150183
0,666	18,3150183150183
0,6665	18,3150183150183
0,667	23,1990231990231
0,6675	23,1990231990231
0,668	28,083028083028
0,6685	23,1990231990231
0,669	23,1990231990231
0,6695	18,3150183150183
0,67	13,4310134310134
0,6705	8,54700854700852
0,671	3,66300366300365
0,6715	8,54700854700852
0,672	3,66300366300365
0,6725	-1,22100122100122
0,673	3,66300366300365
0,6735	8,54700854700852
0,674	8,54700854700852
0,6745	8,54700854700852
0,675	8,54700854700852
0,6755	3,66300366300365
0,676	8,54700854700852
0,6765	8,54700854700852
0,677	8,54700854700852
0,6775	8,54700854700852
0,678	3,66300366300365
0,6785	-1,22100122100122
0,679	-10,989010989011
0,6795	-10,989010989011
0,68	-6,10500610500608
0,6805	-6,10500610500608
0,681	-1,22100122100122
0,6815	3,66300366300365
0,682	-1,22100122100122
0,6825	-1,22100122100122
0,683	-1,22100122100122
0,6835	-1,22100122100122
0,684	-6,10500610500608
0,6845	-1,22100122100122
0,685	3,66300366300365
0,6855	3,66300366300365
0,686	3,66300366300365
0,6865	8,54700854700852
0,687	8,54700854700852
0,6875	13,4310134310134
0,688	13,4310134310134
0,6885	18,3150183150183
0,689	18,3150183150183
0,6895	18,3150183150183
0,69	13,4310134310134
0,6905	18,3150183150183
0,691	8,54700854700852
0,6915	8,54700854700852
0,692	8,54700854700852
0,6925	8,54700854700852
0,693	13,4310134310134
0,6935	8,54700854700852
0,694	3,66300366300365
0,6945	3,66300366300365
0,695	3,66300366300365
0,6955	3,66300366300365
0,696	3,66300366300365
0,6965	3,66300366300365
0,697	-1,22100122100122
0,6975	-6,10500610500608
0,698	-6,10500610500608
0,6985	-10,989010989011
0,699	-6,10500610500608
0,6995	-6,10500610500608
0,7	-6,10500610500608
0,7005	-6,10500610500608
0,701	-10,989010989011
0,7015	-10,989010989011
0,702	-10,989010989011
0,7025	-10,989010989011
0,703	-6,10500610500608
0,7035	-6,10500610500608
0,704	-1,22100122100122
0,7045	3,66300366300365
0,705	8,54700854700852
0,7055	13,4310134310134
0,706	13,4310134310134
0,7065	3,66300366300365
0,707	3,66300366300365
0,7075	8,54700854700852
0,708	13,4310134310134
0,7085	18,3150183150183
0,709	18,3150183150183
0,7095	18,3150183150183
0,71	18,3150183150183
0,7105	13,4310134310134
0,711	18,3150183150183
0,7115	18,3150183150183
0,712	13,4310134310134
0,7125	8,54700854700852
0,713	8,54700854700852
0,7135	8,54700854700852
0,714	8,54700854700852
0,7145	13,4310134310134
0,715	13,4310134310134
0,7155	8,54700854700852
0,716	3,66300366300365
0,7165	-1,22100122100122
0,717	3,66300366300365
0,7175	8,54700854700852
0,718	3,66300366300365
0,7185	-6,10500610500608
0,719	-10,989010989011
0,7195	-25,6410256410256
0,72	-40,2930402930402
0,7205	-35,4090354090353
0,721	-20,7570207570207
0,7215	-10,989010989011
0,722	-6,10500610500608
0,7225	3,66300366300365
0,723	8,54700854700852
0,7235	8,54700854700852
0,724	18,3150183150183
0,7245	23,1990231990231
0,725	18,3150183150183
0,7255	8,54700854700852
0,726	8,54700854700852
0,7265	13,4310134310134
0,727	13,4310134310134
0,7275	18,3150183150183
0,728	18,3150183150183
0,7285	28,083028083028
0,729	32,9670329670329
0,7295	23,1990231990231
0,73	18,3150183150183
0,7305	13,4310134310134
0,731	3,66300366300365
0,7315	3,66300366300365
0,732	3,66300366300365
0,7325	-6,10500610500608
0,733	-10,989010989011
0,7335	-10,989010989011
0,734	-6,10500610500608
0,7345	-6,10500610500608
0,735	-10,989010989011
0,7355	-10,989010989011
0,736	-6,10500610500608
0,7365	3,66300366300365
0,737	13,4310134310134
0,7375	18,3150183150183
0,738	8,54700854700852
0,7385	-1,22100122100122
0,739	-10,989010989011
0,7395	-10,989010989011
0,74	-10,989010989011
0,7405	-10,989010989011
0,741	-10,989010989011
0,7415	-1,22100122100122
0,742	13,4310134310134
0,7425	23,1990231990231
0,743	23,1990231990231
0,7435	18,3150183150183
0,744	13,4310134310134
0,7445	13,4310134310134
0,745	8,54700854700852
0,7455	13,4310134310134
0,746	8,54700854700852
0,7465	8,54700854700852
0,747	8,54700854700852
0,7475	8,54700854700852
0,748	8,54700854700852
0,7485	13,4310134310134
0,749	13,4310134310134
0,7495	13,4310134310134
0,75	8,54700854700852
0,7505	3,66300366300365
0,751	3,66300366300365
0,7515	3,66300366300365
0,752	3,66300366300365
0,7525	3,66300366300365
0,753	3,66300366300365
0,7535	-1,22100122100122
0,754	-1,22100122100122
0,7545	3,66300366300365
0,755	8,54700854700852
0,7555	8,54700854700852
0,756	3,66300366300365
0,7565	3,66300366300365
0,757	-1,22100122100122
0,7575	-6,10500610500608
0,758	-6,10500610500608
0,7585	-1,22100122100122
0,759	-1,22100122100122
0,7595	-6,10500610500608
0,76	-1,22100122100122
0,7605	-1,22100122100122
0,761	3,66300366300365
0,7615	3,66300366300365
0,762	3,66300366300365
0,7625	3,66300366300365
0,763	3,66300366300365
0,7635	3,66300366300365
0,764	3,66300366300365
0,7645	3,66300366300365
0,765	3,66300366300365
0,7655	3,66300366300365
0,766	3,66300366300365
0,7665	-1,22100122100122
0,767	3,66300366300365
0,7675	3,66300366300365
0,768	3,66300366300365
0,7685	3,66300366300365
0,769	3,66300366300365
0,7695	3,66300366300365
0,77	8,54700854700852
0,7705	8,54700854700852
0,771	18,3150183150183
0,7715	18,3150183150183
0,772	23,1990231990231
0,7725	23,1990231990231
0,773	18,3150183150183
0,7735	13,4310134310134
0,774	13,4310134310134
0,7745	8,54700854700852
0,775	8,54700854700852
0,7755	3,66300366300365
0,776	3,66300366300365
0,7765	-6,10500610500608
0,777	-6,10500610500608
0,7775	3,66300366300365
0,778	13,4310134310134
0,7785	18,3150183150183
0,779	23,1990231990231
0,7795	18,3150183150183
0,78	8,54700854700852
0,7805	-1,22100122100122
0,781	-10,989010989011
0,7815	-25,6410256410256
0,782	-30,5250305250304
0,7825	-25,6410256410256
0,783	-15,8730158730158
0,7835	-10,989010989011
0,784	-1,22100122100122
0,7845	8,54700854700852
0,785	13,4310134310134
0,7855	8,54700854700852
0,786	3,66300366300365
0,7865	3,66300366300365
0,787	3,66300366300365
0,7875	-1,22100122100122
0,788	-1,22100122100122
0,7885	-1,22100122100122
0,789	3,66300366300365
0,7895	3,66300366300365
0,79	3,66300366300365
0,7905	-1,22100122100122
0,791	-6,10500610500608
0,7915	-6,10500610500608
0,792	-10,989010989011
0,7925	-10,989010989011
0,793	-10,989010989011
0,7935	-6,10500610500608
0,794	-1,22100122100122
0,7945	3,66300366300365
0,795	13,4310134310134
0,7955	18,3150183150183
0,796	13,4310134310134
0,7965	13,4310134310134
0,797	8,54700854700852
0,7975	8,54700854700852
0,798	8,54700854700852
0,7985	18,3150183150183
0,799	23,1990231990231
0,7995	18,3150183150183
0,8	13,4310134310134
0,8005	8,54700854700852
0,801	3,66300366300365
0,8015	-1,22100122100122
0,802	-6,10500610500608
0,8025	-1,22100122100122
0,803	3,66300366300365
0,8035	18,3150183150183
0,804	23,1990231990231
0,8045	18,3150183150183
0,805	8,54700854700852
0,8055	8,54700854700852
0,806	23,1990231990231
0,8065	32,9670329670329
0,807	28,083028083028
0,8075	18,3150183150183
0,808	8,54700854700852
0,8085	3,66300366300365
0,809	-1,22100122100122
0,8095	-6,10500610500608
0,81	-10,989010989011
0,8105	-10,989010989011
0,811	-10,989010989011
0,8115	-10,989010989011
0,812	-10,989010989011
0,8125	-6,10500610500608
0,813	-6,10500610500608
0,8135	-1,22100122100122
0,814	8,54700854700852
0,8145	8,54700854700852
0,815	8,54700854700852
0,8155	3,66300366300365
0,816	-6,10500610500608
0,8165	-10,989010989011
0,817	-1,22100122100122
0,8175	8,54700854700852
0,818	8,54700854700852
0,8185	3,66300366300365
0,819	3,66300366300365
0,8195	8,54700854700852
0,82	8,54700854700852
0,8205	8,54700854700852
0,821	8,54700854700852
0,8215	8,54700854700852
0,822	3,66300366300365
0,8225	3,66300366300365
0,823	-1,22100122100122
0,8235	-6,10500610500608
0,824	-10,989010989011
0,8245	-10,989010989011
0,825	-10,989010989011
0,8255	-10,989010989011
0,826	-10,989010989011
0,8265	-6,10500610500608
0,827	3,66300366300365
0,8275	8,54700854700852
0,828	8,54700854700852
0,8285	8,54700854700852
0,829	8,54700854700852
0,8295	8,54700854700852
0,83	8,54700854700852
0,8305	8,54700854700852
0,831	8,54700854700852
0,8315	8,54700854700852
0,832	8,54700854700852
0,8325	8,54700854700852
0,833	8,54700854700852
0,8335	13,4310134310134
0,834	18,3150183150183
0,8345	18,3150183150183
0,835	18,3150183150183
0,8355	18,3150183150183
0,836	18,3150183150183
0,8365	23,1990231990231
0,837	23,1990231990231
0,8375	18,3150183150183
0,838	18,3150183150183
0,8385	8,54700854700852
0,839	3,66300366300365
0,8395	-6,10500610500608
0,84	-6,10500610500608
0,8405	-6,10500610500608
0,841	-1,22100122100122
0,8415	-1,22100122100122
0,842	-6,10500610500608
0,8425	-6,10500610500608
0,843	-6,10500610500608
0,8435	-10,989010989011
0,844	-6,10500610500608
0,8445	-1,22100122100122
0,845	-1,22100122100122
0,8455	-1,22100122100122
0,846	-1,22100122100122
0,8465	3,66300366300365
0,847	8,54700854700852
0,8475	8,54700854700852
0,848	13,4310134310134
0,8485	13,4310134310134
0,849	8,54700854700852
0,8495	-1,22100122100122
0,85	-10,989010989011
0,8505	-10,989010989011
0,851	-15,8730158730158
0,8515	-15,8730158730158
0,852	-10,989010989011
0,8525	-10,989010989011
0,853	-1,22100122100122
0,8535	3,66300366300365
0,854	3,66300366300365
0,8545	8,54700854700852
0,855	8,54700854700852
0,8555	18,3150183150183
0,856	18,3150183150183
0,8565	18,3150183150183
0,857	13,4310134310134
0,8575	13,4310134310134
0,858	13,4310134310134
0,8585	13,4310134310134
0,859	8,54700854700852
0,8595	8,54700854700852
0,86	8,54700854700852
0,8605	13,4310134310134
0,861	13,4310134310134
0,8615	13,4310134310134
0,862	8,54700854700852
0,8625	3,66300366300365
0,863	3,66300366300365
0,8635	3,66300366300365
0,864	3,66300366300365
0,8645	3,66300366300365
0,865	8,54700854700852
0,8655	3,66300366300365
0,866	3,66300366300365
0,8665	3,66300366300365
0,867	3,66300366300365
0,8675	3,66300366300365
0,868	3,66300366300365
0,8685	8,54700854700852
0,869	8,54700854700852
0,8695	8,54700854700852
0,87	8,54700854700852
0,8705	3,66300366300365
0,871	3,66300366300365
0,8715	-1,22100122100122
0,872	-6,10500610500608
0,8725	-10,989010989011
0,873	-10,989010989011
0,8735	-6,10500610500608
0,874	3,66300366300365
0,8745	3,66300366300365
0,875	3,66300366300365
0,8755	8,54700854700852
0,876	18,3150183150183
0,8765	28,083028083028
0,877	42,7350427350426
0,8775	42,7350427350426
0,878	32,9670329670329
0,8785	23,1990231990231
0,879	8,54700854700852
0,8795	3,66300366300365
0,88	-1,22100122100122
0,8805	-6,10500610500608
0,881	-10,989010989011
0,8815	-10,989010989011
0,882	-10,989010989011
0,8825	-10,989010989011
0,883	-10,989010989011
0,8835	-6,10500610500608
0,884	-1,22100122100122
0,8845	3,66300366300365
0,885	3,66300366300365
0,8855	8,54700854700852
0,886	8,54700854700852
0,8865	3,66300366300365
0,887	-6,10500610500608
0,8875	-6,10500610500608
0,888	-6,10500610500608
0,8885	3,66300366300365
0,889	8,54700854700852
0,8895	8,54700854700852
0,89	8,54700854700852
0,8905	8,54700854700852
0,891	3,66300366300365
0,8915	-6,10500610500608
0,892	-6,10500610500608
0,8925	-6,10500610500608
0,893	-6,10500610500608
0,8935	-6,10500610500608
0,894	-6,10500610500608
0,8945	-10,989010989011
0,895	-10,989010989011
0,8955	-6,10500610500608
0,896	3,66300366300365
0,8965	3,66300366300365
0,897	3,66300366300365
0,8975	8,54700854700852
0,898	8,54700854700852
0,8985	8,54700854700852
0,899	8,54700854700852
0,8995	3,66300366300365
0,9	3,66300366300365
0,9005	13,4310134310134
0,901	18,3150183150183
0,9015	23,1990231990231
0,902	23,1990231990231
0,9025	23,1990231990231
0,903	18,3150183150183
0,9035	13,4310134310134
0,904	8,54700854700852
0,9045	-6,10500610500608
0,905	-10,989010989011
0,9055	-10,989010989011
0,906	-10,989010989011
0,9065	-10,989010989011
0,907	-10,989010989011
0,9075	-1,22100122100122
0,908	3,66300366300365
0,9085	8,54700854700852
0,909	8,54700854700852
0,9095	8,54700854700852
0,91	8,54700854700852
0,9105	8,54700854700852
0,911	3,66300366300365
0,9115	3,66300366300365
0,912	3,66300366300365
0,9125	3,66300366300365
0,913	3,66300366300365
0,9135	3,66300366300365
0,914	13,4310134310134
0,9145	18,3150183150183
0,915	8,54700854700852
0,9155	3,66300366300365
0,916	-1,22100122100122
0,9165	3,66300366300365
0,917	8,54700854700852
0,9175	13,4310134310134
0,918	18,3150183150183
0,9185	23,1990231990231
0,919	28,083028083028
0,9195	23,1990231990231
0,92	18,3150183150183
0,9205	13,4310134310134
0,921	13,4310134310134
0,9215	8,54700854700852
0,922	3,66300366300365
0,9225	3,66300366300365
0,923	3,66300366300365
0,9235	8,54700854700852
0,924	13,4310134310134
0,9245	8,54700854700852
0,925	-1,22100122100122
0,9255	-15,8730158730158
0,926	-25,6410256410256
0,9265	-30,5250305250304
0,927	-20,7570207570207
0,9275	-10,989010989011
0,928	-10,989010989011
0,9285	-6,10500610500608
0,929	-6,10500610500608
0,9295	-6,10500610500608
0,93	-6,10500610500608
0,9305	-6,10500610500608
0,931	-6,10500610500608
0,9315	-6,10500610500608
0,932	-1,22100122100122
0,9325	-1,22100122100122
0,933	3,66300366300365
0,9335	3,66300366300365
0,934	8,54700854700852
0,9345	23,1990231990231
0,935	32,9670329670329
0,9355	37,8510378510377
0,936	28,083028083028
0,9365	23,1990231990231
0,937	13,4310134310134
0,9375	8,54700854700852
0,938	8,54700854700852
0,9385	8,54700854700852
0,939	8,54700854700852
0,9395	8,54700854700852
0,94	18,3150183150183
0,9405	18,3150183150183
0,941	13,4310134310134
0,9415	3,66300366300365
0,942	-10,989010989011
0,9425	-10,989010989011
0,943	-10,989010989011
0,9435	-6,10500610500608
0,944	-1,22100122100122
0,9445	-1,22100122100122
0,945	3,66300366300365
0,9455	3,66300366300365
0,946	3,66300366300365
0,9465	3,66300366300365
0,947	-6,10500610500608
0,9475	-1,22100122100122
0,948	3,66300366300365
0,9485	3,66300366300365
0,949	3,66300366300365
0,9495	3,66300366300365
0,95	8,54700854700852
0,9505	13,4310134310134
0,951	13,4310134310134
0,9515	13,4310134310134
0,952	8,54700854700852
0,9525	8,54700854700852
0,953	3,66300366300365
0,9535	8,54700854700852
0,954	8,54700854700852
0,9545	3,66300366300365
0,955	3,66300366300365
0,9555	-6,10500610500608
0,956	-10,989010989011
0,9565	-10,989010989011
0,957	-6,10500610500608
0,9575	3,66300366300365
0,958	8,54700854700852
0,9585	13,4310134310134
0,959	8,54700854700852
0,9595	13,4310134310134
0,96	13,4310134310134
0,9605	18,3150183150183
0,961	18,3150183150183
0,9615	18,3150183150183
0,962	18,3150183150183
0,9625	13,4310134310134
0,963	8,54700854700852
0,9635	3,66300366300365
0,964	-1,22100122100122
0,9645	-1,22100122100122
0,965	-6,10500610500608
0,9655	-6,10500610500608
0,966	-10,989010989011
0,9665	-15,8730158730158
0,967	-20,7570207570207
0,9675	-20,7570207570207
0,968	-20,7570207570207
0,9685	-20,7570207570207
0,969	-20,7570207570207
0,9695	-30,5250305250304
0,97	-20,7570207570207
0,9705	-15,8730158730158
0,971	-6,10500610500608
0,9715	8,54700854700852
0,972	18,3150183150183
0,9725	23,1990231990231
0,973	28,083028083028
0,9735	28,083028083028
0,974	28,083028083028
0,9745	28,083028083028
0,975	23,1990231990231
0,9755	18,3150183150183
0,976	18,3150183150183
0,9765	18,3150183150183
0,977	18,3150183150183
0,9775	18,3150183150183
0,978	23,1990231990231
0,9785	23,1990231990231
0,979	23,1990231990231
0,9795	18,3150183150183
0,98	18,3150183150183
0,9805	8,54700854700852
0,981	3,66300366300365
0,9815	-1,22100122100122
0,982	-10,989010989011
0,9825	-15,8730158730158
0,983	-20,7570207570207
0,9835	-20,7570207570207
0,984	-15,8730158730158
0,9845	-10,989010989011
0,985	-1,22100122100122
0,9855	8,54700854700852
0,986	8,54700854700852
0,9865	8,54700854700852
0,987	8,54700854700852
0,9875	3,66300366300365
0,988	3,66300366300365
0,9885	3,66300366300365
0,989	3,66300366300365
0,9895	8,54700854700852
0,99	13,4310134310134
0,9905	18,3150183150183
0,991	18,3150183150183
0,9915	18,3150183150183
0,992	18,3150183150183
0,9925	13,4310134310134
0,993	3,66300366300365
0,9935	-1,22100122100122
0,994	-6,10500610500608
0,9945	-10,989010989011
0,995	-6,10500610500608
0,9955	-1,22100122100122
0,996	-1,22100122100122
0,9965	-1,22100122100122
0,997	3,66300366300365
0,9975	3,66300366300365
0,998	3,66300366300365
0,9985	8,54700854700852
0,999	18,3150183150183
0,9995	18,3150183150183
1	18,3150183150183
1,0005	8,54700854700852
1,001	3,66300366300365
1,0015	-1,22100122100122
1,002	-1,22100122100122
1,0025	-6,10500610500608
1,003	-10,989010989011
1,0035	-15,8730158730158
1,004	-10,989010989011
1,0045	-10,989010989011
1,005	-1,22100122100122
1,0055	3,66300366300365
1,006	8,54700854700852
1,0065	23,1990231990231
1,007	37,8510378510377
1,0075	42,7350427350426
1,008	32,9670329670329
1,0085	28,083028083028
1,009	18,3150183150183
1,0095	13,4310134310134
1,01	3,66300366300365
1,0105	3,66300366300365
1,011	3,66300366300365
1,0115	3,66300366300365
1,012	8,54700854700852
1,0125	3,66300366300365
1,013	3,66300366300365
1,0135	-1,22100122100122
1,014	-1,22100122100122
1,0145	-1,22100122100122
1,015	-6,10500610500608
1,0155	-6,10500610500608
1,016	-6,10500610500608
1,0165	-6,10500610500608
1,017	-6,10500610500608
1,0175	-6,10500610500608
1,018	-6,10500610500608
1,0185	-1,22100122100122
1,019	-1,22100122100122
1,0195	-1,22100122100122
1,02	-1,22100122100122
1,0205	3,66300366300365
1,021	-1,22100122100122
1,0215	-1,22100122100122
1,022	-1,22100122100122
1,0225	3,66300366300365
1,023	3,66300366300365
1,0235	3,66300366300365
1,024	-1,22100122100122
1,0245	3,66300366300365
1,025	3,66300366300365
1,0255	3,66300366300365
1,026	3,66300366300365
1,0265	-1,22100122100122
1,027	-1,22100122100122
1,0275	-1,22100122100122
1,028	-1,22100122100122
1,0285	-1,22100122100122
1,029	3,66300366300365
1,0295	3,66300366300365
1,03	3,66300366300365
1,0305	8,54700854700852
1,031	8,54700854700852
1,0315	18,3150183150183
1,032	18,3150183150183
1,0325	18,3150183150183
1,033	18,3150183150183
1,0335	23,1990231990231
1,034	18,3150183150183
1,0345	8,54700854700852
1,035	3,66300366300365
1,0355	3,66300366300365
1,036	3,66300366300365
1,0365	8,54700854700852
1,037	13,4310134310134
1,0375	18,3150183150183
1,038	18,3150183150183
1,0385	18,3150183150183
1,039	13,4310134310134
1,0395	8,54700854700852
1,04	3,66300366300365
1,0405	-1,22100122100122
1,041	-10,989010989011
1,0415	-10,989010989011
1,042	-15,8730158730158
1,0425	-25,6410256410256
1,043	-30,5250305250304
1,0435	-30,5250305250304
1,044	-30,5250305250304
1,0445	-25,6410256410256
1,045	-15,8730158730158
1,0455	-10,989010989011
1,046	3,66300366300365
1,0465	8,54700854700852
1,047	8,54700854700852
1,0475	13,4310134310134
1,048	13,4310134310134
1,0485	18,3150183150183
1,049	18,3150183150183
1,0495	18,3150183150183
1,05	18,3150183150183
1,0505	13,4310134310134
1,051	8,54700854700852
1,0515	3,66300366300365
1,052	3,66300366300365
1,0525	3,66300366300365
1,053	3,66300366300365
1,0535	3,66300366300365
1,054	3,66300366300365
1,0545	3,66300366300365
1,055	-6,10500610500608
1,0555	-10,989010989011
1,056	-10,989010989011
1,0565	-6,10500610500608
1,057	3,66300366300365
1,0575	13,4310134310134
1,058	18,3150183150183
1,0585	23,1990231990231
1,059	23,1990231990231
1,0595	23,1990231990231
1,06	28,083028083028
1,0605	28,083028083028
1,061	23,1990231990231
1,0615	18,3150183150183
1,062	13,4310134310134
1,0625	8,54700854700852
1,063	3,66300366300365
1,0635	-1,22100122100122
1,064	-1,22100122100122
1,0645	3,66300366300365
1,065	3,66300366300365
1,0655	13,4310134310134
1,066	18,3150183150183
1,0665	18,3150183150183
1,067	13,4310134310134
1,0675	13,4310134310134
1,068	8,54700854700852
1,0685	3,66300366300365
1,069	3,66300366300365
1,0695	3,66300366300365
1,07	-1,22100122100122
1,0705	3,66300366300365
1,071	3,66300366300365
1,0715	3,66300366300365
1,072	3,66300366300365
1,0725	3,66300366300365
1,073	-1,22100122100122
1,0735	-1,22100122100122
1,074	-10,989010989011
1,0745	-10,989010989011
1,075	-10,989010989011
1,0755	-6,10500610500608
1,076	-1,22100122100122
1,0765	-1,22100122100122
1,077	-1,22100122100122
1,0775	3,66300366300365
1,078	13,4310134310134
1,0785	28,083028083028
1,079	28,083028083028
1,0795	18,3150183150183
1,08	8,54700854700852
1,0805	3,66300366300365
1,081	3,66300366300365
1,0815	-1,22100122100122
1,082	-6,10500610500608
1,0825	-6,10500610500608
1,083	-6,10500610500608
1,0835	-6,10500610500608
1,084	-6,10500610500608
1,0845	-6,10500610500608
1,085	-6,10500610500608
1,0855	-6,10500610500608
1,086	-1,22100122100122
1,0865	-1,22100122100122
1,087	3,66300366300365
1,0875	3,66300366300365
1,088	8,54700854700852
1,0885	8,54700854700852
1,089	13,4310134310134
1,0895	13,4310134310134
1,09	13,4310134310134
1,0905	13,4310134310134
1,091	8,54700854700852
1,0915	3,66300366300365
1,092	-6,10500610500608
1,0925	-10,989010989011
1,093	-6,10500610500608
1,0935	-1,22100122100122
1,094	-1,22100122100122
1,0945	3,66300366300365
1,095	8,54700854700852
1,0955	8,54700854700852
1,096	8,54700854700852
1,0965	8,54700854700852
1,097	-1,22100122100122
1,0975	-6,10500610500608
1,098	-6,10500610500608
1,0985	-1,22100122100122
1,099	3,66300366300365
1,0995	8,54700854700852
1,1	13,4310134310134
1,1005	18,3150183150183
1,101	28,083028083028
1,1015	28,083028083028
1,102	18,3150183150183
1,1025	3,66300366300365
1,103	-6,10500610500608
1,1035	-6,10500610500608
1,104	-10,989010989011
1,1045	-10,989010989011
1,105	-15,8730158730158
1,1055	-20,7570207570207
1,106	-15,8730158730158
1,1065	-10,989010989011
1,107	-6,10500610500608
1,1075	-1,22100122100122
1,108	8,54700854700852
1,1085	8,54700854700852
1,109	13,4310134310134
1,1095	13,4310134310134
1,11	18,3150183150183
1,1105	13,4310134310134
1,111	8,54700854700852
1,1115	3,66300366300365
1,112	3,66300366300365
1,1125	3,66300366300365
1,113	3,66300366300365
1,1135	3,66300366300365
1,114	3,66300366300365
1,1145	3,66300366300365
1,115	3,66300366300365
1,1155	3,66300366300365
1,116	3,66300366300365
1,1165	3,66300366300365
1,117	8,54700854700852
1,1175	3,66300366300365
1,118	8,54700854700852
1,1185	8,54700854700852
1,119	13,4310134310134
1,1195	13,4310134310134
1,12	13,4310134310134
1,1205	13,4310134310134
1,121	13,4310134310134
1,1215	13,4310134310134
1,122	8,54700854700852
1,1225	8,54700854700852
1,123	3,66300366300365
1,1235	3,66300366300365
1,124	-1,22100122100122
1,1245	-1,22100122100122
1,125	3,66300366300365
1,1255	-1,22100122100122
1,126	-6,10500610500608
1,1265	-10,989010989011
1,127	-10,989010989011
1,1275	-10,989010989011
1,128	-10,989010989011
1,1285	-6,10500610500608
1,129	-1,22100122100122
1,1295	-1,22100122100122
1,13	3,66300366300365
1,1305	8,54700854700852
1,131	8,54700854700852
1,1315	8,54700854700852
1,132	13,4310134310134
1,1325	18,3150183150183
1,133	18,3150183150183
1,1335	18,3150183150183
1,134	18,3150183150183
1,1345	18,3150183150183
1,135	18,3150183150183
1,1355	13,4310134310134
1,136	3,66300366300365
1,1365	-1,22100122100122
1,137	-6,10500610500608
1,1375	-6,10500610500608
1,138	-6,10500610500608
1,1385	-10,989010989011
1,139	-15,8730158730158
1,1395	-20,7570207570207
1,14	-15,8730158730158
1,1405	-10,989010989011
1,141	-10,989010989011
1,1415	-10,989010989011
1,142	3,66300366300365
1,1425	18,3150183150183
1,143	28,083028083028
1,1435	28,083028083028
1,144	32,9670329670329
1,1445	23,1990231990231
1,145	18,3150183150183
1,1455	13,4310134310134
1,146	8,54700854700852
1,1465	3,66300366300365
1,147	-1,22100122100122
1,1475	-6,10500610500608
1,148	-10,989010989011
1,1485	-6,10500610500608
1,149	-6,10500610500608
1,1495	3,66300366300365
1,15	13,4310134310134
1,1505	23,1990231990231
1,151	28,083028083028
1,1515	23,1990231990231
1,152	8,54700854700852
1,1525	-1,22100122100122
1,153	-6,10500610500608
1,1535	-1,22100122100122
1,154	-1,22100122100122
1,1545	3,66300366300365
1,155	3,66300366300365
1,1555	3,66300366300365
1,156	8,54700854700852
1,1565	13,4310134310134
1,157	18,3150183150183
1,1575	18,3150183150183
1,158	18,3150183150183
1,1585	8,54700854700852
1,159	8,54700854700852
1,1595	8,54700854700852
1,16	3,66300366300365
1,1605	3,66300366300365
1,161	-6,10500610500608
1,1615	-10,989010989011
1,162	-10,989010989011
1,1625	-6,10500610500608
1,163	3,66300366300365
1,1635	3,66300366300365
1,164	-6,10500610500608
1,1645	-6,10500610500608
1,165	-6,10500610500608
1,1655	-1,22100122100122
1,166	3,66300366300365
1,1665	3,66300366300365
1,167	8,54700854700852
1,1675	8,54700854700852
1,168	8,54700854700852
1,1685	3,66300366300365
1,169	3,66300366300365
1,1695	3,66300366300365
1,17	3,66300366300365
1,1705	8,54700854700852
1,171	3,66300366300365
1,1715	3,66300366300365
1,172	-1,22100122100122
1,1725	3,66300366300365
1,173	13,4310134310134
1,1735	18,3150183150183
1,174	18,3150183150183
1,1745	8,54700854700852
1,175	-6,10500610500608
1,1755	-10,989010989011
1,176	-10,989010989011
1,1765	-1,22100122100122
1,177	8,54700854700852
1,1775	13,4310134310134
1,178	8,54700854700852
1,1785	8,54700854700852
1,179	8,54700854700852
1,1795	8,54700854700852
1,18	3,66300366300365
1,1805	-1,22100122100122
1,181	-10,989010989011
1,1815	-15,8730158730158
1,182	-15,8730158730158
1,1825	-15,8730158730158
1,183	-10,989010989011
1,1835	-10,989010989011
1,184	-1,22100122100122
1,1845	8,54700854700852
1,185	8,54700854700852
1,1855	8,54700854700852
1,186	8,54700854700852
1,1865	13,4310134310134
1,187	13,4310134310134
1,1875	13,4310134310134
1,188	13,4310134310134
1,1885	8,54700854700852
1,189	8,54700854700852
1,1895	8,54700854700852
1,19	13,4310134310134
1,1905	18,3150183150183
1,191	18,3150183150183
1,1915	13,4310134310134
1,192	13,4310134310134
1,1925	13,4310134310134
1,193	8,54700854700852
1,1935	8,54700854700852
1,194	3,66300366300365
1,1945	3,66300366300365
1,195	3,66300366300365
1,1955	-1,22100122100122
1,196	-1,22100122100122
1,1965	3,66300366300365
1,197	-1,22100122100122
1,1975	-10,989010989011
1,198	-10,989010989011
1,1985	-10,989010989011
1,199	-10,989010989011
1,1995	-10,989010989011
1,2	-6,10500610500608
1,2005	3,66300366300365
1,201	3,66300366300365
1,2015	8,54700854700852
1,202	8,54700854700852
1,2025	8,54700854700852
1,203	3,66300366300365
1,2035	8,54700854700852
1,204	8,54700854700852
1,2045	8,54700854700852
1,205	13,4310134310134
1,2055	18,3150183150183
1,206	18,3150183150183
1,2065	13,4310134310134
1,207	8,54700854700852
1,2075	3,66300366300365
1,208	3,66300366300365
1,2085	8,54700854700852
1,209	3,66300366300365
1,2095	3,66300366300365
1,21	3,66300366300365
1,2105	3,66300366300365
1,211	-6,10500610500608
1,2115	3,66300366300365
1,212	3,66300366300365
1,2125	3,66300366300365
1,213	3,66300366300365
1,2135	-1,22100122100122
1,214	-6,10500610500608
1,2145	-6,10500610500608
1,215	3,66300366300365
1,2155	8,54700854700852
1,216	8,54700854700852
1,2165	13,4310134310134
1,217	18,3150183150183
1,2175	13,4310134310134
1,218	8,54700854700852
1,2185	8,54700854700852
1,219	13,4310134310134
1,2195	13,4310134310134
1,22	18,3150183150183
1,2205	18,3150183150183
1,221	13,4310134310134
1,2215	8,54700854700852
1,222	8,54700854700852
1,2225	-1,22100122100122
1,223	-6,10500610500608
1,2235	-10,989010989011
1,224	-25,6410256410256
1,2245	-30,5250305250304
1,225	-20,7570207570207
1,2255	-10,989010989011
1,226	-6,10500610500608
1,2265	-1,22100122100122
1,227	3,66300366300365
1,2275	18,3150183150183
1,228	23,1990231990231
1,2285	37,8510378510377
1,229	37,8510378510377
1,2295	28,083028083028
1,23	18,3150183150183
1,2305	8,54700854700852
1,231	3,66300366300365
1,2315	-1,22100122100122
1,232	-6,10500610500608
1,2325	-10,989010989011
1,233	-10,989010989011
1,2335	-10,989010989011
1,234	-6,10500610500608
1,2345	3,66300366300365
1,235	18,3150183150183
1,2355	23,1990231990231
1,236	28,083028083028
1,2365	23,1990231990231
1,237	23,1990231990231
1,2375	18,3150183150183
1,238	18,3150183150183
1,2385	13,4310134310134
1,239	3,66300366300365
1,2395	-1,22100122100122
1,24	-6,10500610500608
1,2405	-1,22100122100122
1,241	-1,22100122100122
1,2415	-6,10500610500608
1,242	-15,8730158730158
1,2425	-20,7570207570207
1,243	-25,6410256410256
1,2435	-30,5250305250304
1,244	-30,5250305250304
1,2445	-25,6410256410256
1,245	-20,7570207570207
1,2455	-10,989010989011
1,246	-10,989010989011
1,2465	-10,989010989011
1,247	-10,989010989011
1,2475	-6,10500610500608
1,248	3,66300366300365
1,2485	18,3150183150183
1,249	23,1990231990231
1,2495	28,083028083028
1,25	28,083028083028
1,2505	23,1990231990231
1,251	23,1990231990231
1,2515	18,3150183150183
1,252	18,3150183150183
1,2525	18,3150183150183
1,253	13,4310134310134
1,2535	8,54700854700852
1,254	3,66300366300365
1,2545	3,66300366300365
1,255	3,66300366300365
1,2555	8,54700854700852
1,256	8,54700854700852
1,2565	18,3150183150183
1,257	23,1990231990231
1,2575	18,3150183150183
1,258	8,54700854700852
1,2585	3,66300366300365
1,259	-1,22100122100122
1,2595	-1,22100122100122
1,26	3,66300366300365
1,2605	8,54700854700852
1,261	8,54700854700852
1,2615	8,54700854700852
1,262	8,54700854700852
1,2625	3,66300366300365
1,263	3,66300366300365
1,2635	3,66300366300365
1,264	3,66300366300365
1,2645	8,54700854700852
1,265	13,4310134310134
1,2655	13,4310134310134
1,266	13,4310134310134
1,2665	8,54700854700852
1,267	3,66300366300365
1,2675	-1,22100122100122
1,268	-6,10500610500608
1,2685	-6,10500610500608
1,269	-1,22100122100122
1,2695	3,66300366300365
1,27	3,66300366300365
1,2705	3,66300366300365
1,271	-1,22100122100122
1,2715	-1,22100122100122
1,272	-1,22100122100122
1,2725	-1,22100122100122
1,273	-1,22100122100122
1,2735	-1,22100122100122
1,274	3,66300366300365
1,2745	3,66300366300365
1,275	3,66300366300365
1,2755	3,66300366300365
1,276	3,66300366300365
1,2765	13,4310134310134
1,277	18,3150183150183
1,2775	18,3150183150183
1,278	23,1990231990231
1,2785	18,3150183150183
1,279	3,66300366300365
1,2795	-6,10500610500608
1,28	-6,10500610500608
1,2805	-1,22100122100122
1,281	-1,22100122100122
1,2815	3,66300366300365
1,282	3,66300366300365
1,2825	3,66300366300365
1,283	8,54700854700852
1,2835	13,4310134310134
1,284	18,3150183150183
1,2845	13,4310134310134
1,285	8,54700854700852
1,2855	3,66300366300365
1,286	3,66300366300365
1,2865	3,66300366300365
1,287	3,66300366300365
1,2875	-1,22100122100122
1,288	-10,989010989011
1,2885	-10,989010989011
1,289	-10,989010989011
1,2895	-10,989010989011
1,29	-10,989010989011
1,2905	-10,989010989011
1,291	-10,989010989011
1,2915	-10,989010989011
1,292	-10,989010989011
1,2925	-10,989010989011
1,293	-6,10500610500608
1,2935	8,54700854700852
1,294	23,1990231990231
1,2945	32,9670329670329
1,295	28,083028083028
1,2955	18,3150183150183
1,296	13,4310134310134
1,2965	8,54700854700852
1,297	3,66300366300365
1,2975	3,66300366300365
1,298	3,66300366300365
1,2985	3,66300366300365
1,299	3,66300366300365
1,2995	3,66300366300365
1,3	8,54700854700852
1,3005	8,54700854700852
1,301	8,54700854700852
1,3015	8,54700854700852
1,302	8,54700854700852
1,3025	8,54700854700852
1,303	18,3150183150183
1,3035	18,3150183150183
1,304	23,1990231990231
1,3045	18,3150183150183
1,305	18,3150183150183
1,3055	23,1990231990231
1,306	18,3150183150183
1,3065	8,54700854700852
1,307	3,66300366300365
1,3075	-6,10500610500608
1,308	-10,989010989011
1,3085	-10,989010989011
1,309	-10,989010989011
1,3095	-10,989010989011
1,31	-10,989010989011
1,3105	-10,989010989011
1,311	-6,10500610500608
1,3115	-6,10500610500608
1,312	-6,10500610500608
1,3125	-6,10500610500608
1,313	-10,989010989011
1,3135	-6,10500610500608
1,314	-1,22100122100122
1,3145	-1,22100122100122
1,315	3,66300366300365
1,3155	3,66300366300365
1,316	3,66300366300365
1,3165	8,54700854700852
1,317	3,66300366300365
1,3175	3,66300366300365
1,318	3,66300366300365
1,3185	3,66300366300365
1,319	3,66300366300365
1,3195	8,54700854700852
1,32	13,4310134310134
1,3205	18,3150183150183
1,321	23,1990231990231
1,3215	18,3150183150183
1,322	8,54700854700852
1,3225	8,54700854700852
1,323	8,54700854700852
1,3235	8,54700854700852
1,324	8,54700854700852
1,3245	3,66300366300365
1,325	3,66300366300365
1,3255	3,66300366300365
1,326	8,54700854700852
1,3265	8,54700854700852
1,327	8,54700854700852
1,3275	8,54700854700852
1,328	8,54700854700852
1,3285	8,54700854700852
1,329	8,54700854700852
1,3295	3,66300366300365
1,33	8,54700854700852
1,3305	8,54700854700852
1,331	3,66300366300365
1,3315	3,66300366300365
1,332	-1,22100122100122
1,3325	-6,10500610500608
1,333	-6,10500610500608
1,3335	-6,10500610500608
1,334	-6,10500610500608
1,3345	-1,22100122100122
1,335	3,66300366300365
1,3355	3,66300366300365
1,336	8,54700854700852
1,3365	13,4310134310134
1,337	18,3150183150183
1,3375	18,3150183150183
1,338	18,3150183150183
1,3385	18,3150183150183
1,339	8,54700854700852
1,3395	8,54700854700852
1,34	-1,22100122100122
1,3405	-6,10500610500608
1,341	-6,10500610500608
1,3415	3,66300366300365
1,342	8,54700854700852
1,3425	8,54700854700852
1,343	13,4310134310134
1,3435	8,54700854700852
1,344	3,66300366300365
1,3445	-1,22100122100122
1,345	-6,10500610500608
1,3455	-6,10500610500608
1,346	-6,10500610500608
1,3465	-6,10500610500608
1,347	-6,10500610500608
1,3475	-10,989010989011
1,348	-10,989010989011
1,3485	-10,989010989011
1,349	-10,989010989011
1,3495	-10,989010989011
1,35	-6,10500610500608
1,3505	-6,10500610500608
1,351	-6,10500610500608
1,3515	3,66300366300365
1,352	3,66300366300365
1,3525	3,66300366300365
1,353	3,66300366300365
1,3535	8,54700854700852
1,354	8,54700854700852
1,3545	13,4310134310134
1,355	8,54700854700852
1,3555	8,54700854700852
1,356	13,4310134310134
1,3565	13,4310134310134
1,357	8,54700854700852
1,3575	3,66300366300365
1,358	3,66300366300365
1,3585	8,54700854700852
1,359	8,54700854700852
1,3595	3,66300366300365
1,36	8,54700854700852
1,3605	3,66300366300365
1,361	8,54700854700852
1,3615	13,4310134310134
1,362	18,3150183150183
1,3625	13,4310134310134
1,363	13,4310134310134
1,3635	18,3150183150183
1,364	18,3150183150183
1,3645	18,3150183150183
1,365	13,4310134310134
1,3655	-6,10500610500608
1,366	-15,8730158730158
1,3665	-15,8730158730158
1,367	-10,989010989011
1,3675	-6,10500610500608
1,368	-6,10500610500608
1,3685	3,66300366300365
1,369	13,4310134310134
1,3695	23,1990231990231
1,37	28,083028083028
1,3705	23,1990231990231
1,371	18,3150183150183
1,3715	13,4310134310134
1,372	13,4310134310134
1,3725	13,4310134310134
1,373	8,54700854700852
1,3735	3,66300366300365
1,374	3,66300366300365
1,3745	-1,22100122100122
1,375	-10,989010989011
1,3755	-15,8730158730158
1,376	-20,7570207570207
1,3765	-20,7570207570207
1,377	-20,7570207570207
1,3775	-10,989010989011
1,378	-6,10500610500608
1,3785	8,54700854700852
1,379	13,4310134310134
1,3795	13,4310134310134
1,38	18,3150183150183
1,3805	18,3150183150183
1,381	23,1990231990231
1,3815	18,3150183150183
1,382	18,3150183150183
1,3825	13,4310134310134
1,383	13,4310134310134
1,3835	8,54700854700852
1,384	8,54700854700852
1,3845	3,66300366300365
1,385	3,66300366300365
1,3855	3,66300366300365
1,386	3,66300366300365
1,3865	-1,22100122100122
1,387	-6,10500610500608
1,3875	-10,989010989011
1,388	-6,10500610500608
1,3885	-1,22100122100122
1,389	-10,989010989011
1,3895	-6,10500610500608
1,39	-1,22100122100122
1,3905	8,54700854700852
1,391	8,54700854700852
1,3915	3,66300366300365
1,392	-1,22100122100122
1,3925	-6,10500610500608
1,393	-10,989010989011
1,3935	-10,989010989011
1,394	-15,8730158730158
1,3945	-10,989010989011
1,395	-6,10500610500608
1,3955	3,66300366300365
1,396	8,54700854700852
1,3965	13,4310134310134
1,397	18,3150183150183
1,3975	18,3150183150183
1,398	18,3150183150183
1,3985	13,4310134310134
1,399	18,3150183150183
1,3995	23,1990231990231
1,4	23,1990231990231
1,4005	13,4310134310134
1,401	-1,22100122100122
1,4015	-1,22100122100122
1,402	3,66300366300365
1,4025	8,54700854700852
1,403	18,3150183150183
1,4035	18,3150183150183
1,404	18,3150183150183
1,4045	8,54700854700852
1,405	8,54700854700852
1,4055	8,54700854700852
1,406	18,3150183150183
1,4065	23,1990231990231
1,407	23,1990231990231
1,4075	23,1990231990231
1,408	13,4310134310134
1,4085	-1,22100122100122
1,409	-10,989010989011
1,4095	-15,8730158730158
1,41	-15,8730158730158
1,4105	-15,8730158730158
1,411	-10,989010989011
1,4115	-6,10500610500608
1,412	-1,22100122100122
1,4125	3,66300366300365
1,413	3,66300366300365
1,4135	3,66300366300365
1,414	8,54700854700852
1,4145	3,66300366300365
1,415	8,54700854700852
1,4155	3,66300366300365
1,416	8,54700854700852
1,4165	3,66300366300365
1,417	3,66300366300365
1,4175	3,66300366300365
1,418	3,66300366300365
1,4185	3,66300366300365
1,419	8,54700854700852
1,4195	8,54700854700852
1,42	8,54700854700852
1,4205	13,4310134310134
1,421	8,54700854700852
1,4215	3,66300366300365
1,422	3,66300366300365
1,4225	-6,10500610500608
1,423	-10,989010989011
1,4235	-15,8730158730158
1,424	-10,989010989011
1,4245	-1,22100122100122
1,425	18,3150183150183
1,4255	28,083028083028
1,426	28,083028083028
1,4265	37,8510378510377
1,427	47,6190476190475
1,4275	47,6190476190475
1,428	37,8510378510377
1,4285	28,083028083028
1,429	18,3150183150183
1,4295	8,54700854700852
1,43	-6,10500610500608
1,4305	-15,8730158730158
1,431	-25,6410256410256
1,4315	-30,5250305250304
1,432	-30,5250305250304
1,4325	-25,6410256410256
1,433	-15,8730158730158
1,4335	-10,989010989011
1,434	-10,989010989011
1,4345	-10,989010989011
1,435	-1,22100122100122
1,4355	3,66300366300365
1,436	3,66300366300365
1,4365	3,66300366300365
1,437	3,66300366300365
1,4375	3,66300366300365
1,438	3,66300366300365
1,4385	3,66300366300365
1,439	3,66300366300365
1,4395	3,66300366300365
1,44	8,54700854700852
1,4405	8,54700854700852
1,441	8,54700854700852
1,4415	13,4310134310134
1,442	13,4310134310134
1,4425	13,4310134310134
1,443	18,3150183150183
1,4435	8,54700854700852
1,444	8,54700854700852
1,4445	3,66300366300365
1,445	3,66300366300365
1,4455	3,66300366300365
1,446	3,66300366300365
1,4465	3,66300366300365
1,447	-1,22100122100122
1,4475	-6,10500610500608
1,448	-10,989010989011
1,4485	-6,10500610500608
1,449	-1,22100122100122
1,4495	3,66300366300365
1,45	13,4310134310134
1,4505	18,3150183150183
1,451	23,1990231990231
1,4515	18,3150183150183
1,452	8,54700854700852
1,4525	3,66300366300365
1,453	-1,22100122100122
1,4535	-1,22100122100122
1,454	-10,989010989011
1,4545	-10,989010989011
1,455	-10,989010989011
1,4555	-10,989010989011
1,456	-1,22100122100122
1,4565	3,66300366300365
1,457	8,54700854700852
1,4575	8,54700854700852
1,458	8,54700854700852
1,4585	8,54700854700852
1,459	13,4310134310134
1,4595	8,54700854700852
1,46	8,54700854700852
1,4605	8,54700854700852
1,461	3,66300366300365
1,4615	3,66300366300365
1,462	3,66300366300365
1,4625	-1,22100122100122
1,463	-1,22100122100122
1,4635	3,66300366300365
1,464	13,4310134310134
1,4645	13,4310134310134
1,465	8,54700854700852
1,4655	8,54700854700852
1,466	8,54700854700852
1,4665	8,54700854700852
1,467	3,66300366300365
1,4675	3,66300366300365
1,468	3,66300366300365
1,4685	8,54700854700852
1,469	8,54700854700852
1,4695	8,54700854700852
1,47	8,54700854700852
1,4705	8,54700854700852
1,471	8,54700854700852
1,4715	8,54700854700852
1,472	13,4310134310134
1,4725	18,3150183150183
1,473	18,3150183150183
1,4735	18,3150183150183
1,474	18,3150183150183
1,4745	8,54700854700852
1,475	8,54700854700852
1,4755	3,66300366300365
1,476	3,66300366300365
1,4765	-1,22100122100122
1,477	-1,22100122100122
1,4775	3,66300366300365
1,478	-1,22100122100122
1,4785	3,66300366300365
1,479	3,66300366300365
1,4795	3,66300366300365
1,48	3,66300366300365
1,4805	3,66300366300365
1,481	-1,22100122100122
1,4815	-1,22100122100122
1,482	3,66300366300365
1,4825	8,54700854700852
1,483	8,54700854700852
1,4835	8,54700854700852
1,484	8,54700854700852
1,4845	8,54700854700852
1,485	8,54700854700852
1,4855	8,54700854700852
1,486	8,54700854700852
1,4865	3,66300366300365
1,487	-1,22100122100122
1,4875	-6,10500610500608
1,488	-6,10500610500608
1,4885	-10,989010989011
1,489	-10,989010989011
1,4895	-15,8730158730158
1,49	-15,8730158730158
1,4905	-10,989010989011
1,491	-10,989010989011
1,4915	-6,10500610500608
1,492	-1,22100122100122
1,4925	3,66300366300365
1,493	8,54700854700852
1,4935	18,3150183150183
1,494	18,3150183150183
1,4945	13,4310134310134
1,495	8,54700854700852
1,4955	8,54700854700852
1,496	3,66300366300365
1,4965	8,54700854700852
1,497	3,66300366300365
1,4975	3,66300366300365
1,498	-1,22100122100122
1,4985	3,66300366300365
1,499	8,54700854700852
1,4995	13,4310134310134
1,5	13,4310134310134
1,5005	18,3150183150183
1,501	28,083028083028
1,5015	37,8510378510377
1,502	32,9670329670329
1,5025	23,1990231990231
1,503	8,54700854700852
1,5035	-1,22100122100122
1,504	-10,989010989011
1,5045	-10,989010989011
1,505	-15,8730158730158
1,5055	-20,7570207570207
1,506	-15,8730158730158
1,5065	-15,8730158730158
1,507	-15,8730158730158
1,5075	-10,989010989011
1,508	-6,10500610500608
1,5085	3,66300366300365
1,509	13,4310134310134
1,5095	23,1990231990231
1,51	23,1990231990231
1,5105	23,1990231990231
1,511	28,083028083028
1,5115	28,083028083028
1,512	28,083028083028
1,5125	23,1990231990231
1,513	8,54700854700852
1,5135	-10,989010989011
1,514	-10,989010989011
1,5145	-10,989010989011
1,515	-6,10500610500608
1,5155	3,66300366300365
1,516	3,66300366300365
1,5165	-6,10500610500608
1,517	-10,989010989011
1,5175	-10,989010989011
1,518	-6,10500610500608
1,5185	-1,22100122100122
1,519	3,66300366300365
1,5195	13,4310134310134
1,52	18,3150183150183
1,5205	13,4310134310134
1,521	8,54700854700852
1,5215	8,54700854700852
1,522	8,54700854700852
1,5225	3,66300366300365
1,523	-1,22100122100122
1,5235	-6,10500610500608
1,524	-10,989010989011
1,5245	-1,22100122100122
1,525	3,66300366300365
1,5255	8,54700854700852
1,526	8,54700854700852
1,5265	3,66300366300365
1,527	8,54700854700852
1,5275	8,54700854700852
1,528	8,54700854700852
1,5285	8,54700854700852
1,529	8,54700854700852
1,5295	3,66300366300365
1,53	3,66300366300365
1,5305	8,54700854700852
1,531	8,54700854700852
1,5315	3,66300366300365
1,532	3,66300366300365
1,5325	-6,10500610500608
1,533	-1,22100122100122
1,5335	-6,10500610500608
1,534	-6,10500610500608
1,5345	-6,10500610500608
1,535	-1,22100122100122
1,5355	3,66300366300365
1,536	3,66300366300365
1,5365	8,54700854700852
1,537	13,4310134310134
1,5375	13,4310134310134
1,538	18,3150183150183
1,5385	18,3150183150183
1,539	13,4310134310134
1,5395	13,4310134310134
1,54	8,54700854700852
1,5405	8,54700854700852
1,541	8,54700854700852
1,5415	8,54700854700852
1,542	3,66300366300365
1,5425	8,54700854700852
1,543	3,66300366300365
1,5435	3,66300366300365
1,544	-1,22100122100122
1,5445	3,66300366300365
1,545	3,66300366300365
1,5455	3,66300366300365
1,546	3,66300366300365
1,5465	3,66300366300365
1,547	3,66300366300365
1,5475	3,66300366300365
1,548	3,66300366300365
1,5485	3,66300366300365
1,549	-1,22100122100122
1,5495	3,66300366300365
1,55	8,54700854700852
1,5505	8,54700854700852
1,551	13,4310134310134
1,5515	13,4310134310134
1,552	8,54700854700852
1,5525	13,4310134310134
1,553	13,4310134310134
1,5535	13,4310134310134
1,554	13,4310134310134
1,5545	3,66300366300365
1,555	-1,22100122100122
1,5555	-6,10500610500608
1,556	-10,989010989011
1,5565	-10,989010989011
1,557	-10,989010989011
1,5575	-10,989010989011
1,558	-10,989010989011
1,5585	-10,989010989011
1,559	-10,989010989011
1,5595	-10,989010989011
1,56	-6,10500610500608
1,5605	-6,10500610500608
1,561	-1,22100122100122
1,5615	3,66300366300365
1,562	8,54700854700852
1,5625	8,54700854700852
1,563	8,54700854700852
1,5635	3,66300366300365
1,564	3,66300366300365
1,5645	-1,22100122100122
1,565	3,66300366300365
1,5655	3,66300366300365
1,566	3,66300366300365
1,5665	3,66300366300365
1,567	8,54700854700852
1,5675	8,54700854700852
1,568	3,66300366300365
1,5685	3,66300366300365
1,569	8,54700854700852
1,5695	18,3150183150183
1,57	18,3150183150183
1,5705	18,3150183150183
1,571	18,3150183150183
1,5715	18,3150183150183
1,572	13,4310134310134
1,5725	3,66300366300365
1,573	8,54700854700852
1,5735	8,54700854700852
1,574	8,54700854700852
1,5745	3,66300366300365
1,575	-6,10500610500608
1,5755	-6,10500610500608
1,576	-10,989010989011
1,5765	-20,7570207570207
1,577	-30,5250305250304
1,5775	-25,6410256410256
1,578	-10,989010989011
1,5785	-6,10500610500608
1,579	3,66300366300365
1,5795	3,66300366300365
1,58	3,66300366300365
1,5805	8,54700854700852
1,581	18,3150183150183
1,5815	28,083028083028
1,582	28,083028083028
1,5825	32,9670329670329
1,583	28,083028083028
1,5835	23,1990231990231
1,584	23,1990231990231
1,5845	13,4310134310134
1,585	3,66300366300365
1,5855	3,66300366300365
1,586	-1,22100122100122
1,5865	3,66300366300365
1,587	3,66300366300365
1,5875	8,54700854700852
1,588	8,54700854700852
1,5885	13,4310134310134
1,589	18,3150183150183
1,5895	18,3150183150183
1,59	18,3150183150183
1,5905	18,3150183150183
1,591	18,3150183150183
1,5915	18,3150183150183
1,592	8,54700854700852
1,5925	3,66300366300365
1,593	-6,10500610500608
1,5935	-10,989010989011
1,594	-15,8730158730158
1,5945	-20,7570207570207
1,595	-15,8730158730158
1,5955	-15,8730158730158
1,596	-10,989010989011
1,5965	-15,8730158730158
1,597	-10,989010989011
1,5975	-10,989010989011
1,598	-1,22100122100122
1,5985	3,66300366300365
1,599	8,54700854700852
1,5995	8,54700854700852
1,6	8,54700854700852
1,6005	3,66300366300365
1,601	8,54700854700852
1,6015	8,54700854700852
1,602	8,54700854700852
1,6025	13,4310134310134
1,603	8,54700854700852
1,6035	18,3150183150183
1,604	23,1990231990231
1,6045	23,1990231990231
1,605	18,3150183150183
1,6055	8,54700854700852
1,606	8,54700854700852
1,6065	8,54700854700852
1,607	8,54700854700852
1,6075	13,4310134310134
1,608	18,3150183150183
1,6085	13,4310134310134
1,609	13,4310134310134
1,6095	8,54700854700852
1,61	3,66300366300365
1,6105	-1,22100122100122
1,611	-6,10500610500608
1,6115	-1,22100122100122
1,612	-6,10500610500608
1,6125	-1,22100122100122
1,613	3,66300366300365
1,6135	3,66300366300365
1,614	-1,22100122100122
1,6145	-1,22100122100122
1,615	-1,22100122100122
1,6155	-1,22100122100122
1,616	3,66300366300365
1,6165	8,54700854700852
1,617	8,54700854700852
1,6175	8,54700854700852
1,618	3,66300366300365
1,6185	-1,22100122100122
1,619	-1,22100122100122
1,6195	-1,22100122100122
1,62	-1,22100122100122
1,6205	-1,22100122100122
1,621	-1,22100122100122
1,6215	-6,10500610500608
1,622	-1,22100122100122
1,6225	3,66300366300365
1,623	3,66300366300365
1,6235	8,54700854700852
1,624	13,4310134310134
1,6245	3,66300366300365
1,625	-10,989010989011
1,6255	-15,8730158730158
1,626	-10,989010989011
1,6265	-6,10500610500608
1,627	-1,22100122100122
1,6275	8,54700854700852
1,628	8,54700854700852
1,6285	8,54700854700852
1,629	13,4310134310134
1,6295	13,4310134310134
1,63	18,3150183150183
1,6305	13,4310134310134
1,631	13,4310134310134
1,6315	18,3150183150183
1,632	18,3150183150183
1,6325	18,3150183150183
1,633	8,54700854700852
1,6335	3,66300366300365
1,634	3,66300366300365
1,6345	-6,10500610500608
1,635	-6,10500610500608
1,6355	-6,10500610500608
1,636	-10,989010989011
1,6365	-10,989010989011
1,637	-10,989010989011
1,6375	-10,989010989011
1,638	-10,989010989011
1,6385	-6,10500610500608
1,639	8,54700854700852
1,6395	28,083028083028
1,64	42,7350427350426
1,6405	37,8510378510377
1,641	23,1990231990231
1,6415	13,4310134310134
1,642	13,4310134310134
1,6425	18,3150183150183
1,643	13,4310134310134
1,6435	8,54700854700852
1,644	3,66300366300365
1,6445	3,66300366300365
1,645	3,66300366300365
1,6455	3,66300366300365
1,646	3,66300366300365
1,6465	-10,989010989011
1,647	-15,8730158730158
1,6475	-15,8730158730158
1,648	-10,989010989011
1,6485	-1,22100122100122
1,649	3,66300366300365
1,6495	13,4310134310134
1,65	23,1990231990231
1,6505	23,1990231990231
1,651	18,3150183150183
1,6515	18,3150183150183
1,652	8,54700854700852
1,6525	8,54700854700852
1,653	3,66300366300365
1,6535	3,66300366300365
1,654	-6,10500610500608
1,6545	-6,10500610500608
1,655	-10,989010989011
1,6555	-10,989010989011
1,656	-10,989010989011
1,6565	-15,8730158730158
1,657	-15,8730158730158
1,6575	-15,8730158730158
1,658	-10,989010989011
1,6585	-6,10500610500608
1,659	3,66300366300365
1,6595	8,54700854700852
1,66	13,4310134310134
1,6605	13,4310134310134
1,661	18,3150183150183
1,6615	18,3150183150183
1,662	18,3150183150183
1,6625	18,3150183150183
1,663	18,3150183150183
1,6635	18,3150183150183
1,664	18,3150183150183
1,6645	23,1990231990231
1,665	23,1990231990231
1,6655	23,1990231990231
1,666	23,1990231990231
1,6665	18,3150183150183
1,667	13,4310134310134
1,6675	8,54700854700852
1,668	-1,22100122100122
1,6685	-10,989010989011
1,669	-15,8730158730158
1,6695	-20,7570207570207
1,67	-20,7570207570207
1,6705	-15,8730158730158
1,671	-10,989010989011
1,6715	-6,10500610500608
1,672	3,66300366300365
1,6725	13,4310134310134
1,673	8,54700854700852
1,6735	8,54700854700852
1,674	3,66300366300365
1,6745	3,66300366300365
1,675	8,54700854700852
1,6755	8,54700854700852
1,676	13,4310134310134
1,6765	18,3150183150183
1,677	13,4310134310134
1,6775	8,54700854700852
1,678	3,66300366300365
1,6785	3,66300366300365
1,679	3,66300366300365
1,6795	3,66300366300365
1,68	3,66300366300365
1,6805	3,66300366300365
1,681	3,66300366300365
1,6815	3,66300366300365
1,682	8,54700854700852
1,6825	8,54700854700852
1,683	8,54700854700852
1,6835	3,66300366300365
1,684	3,66300366300365
1,6845	3,66300366300365
1,685	3,66300366300365
1,6855	8,54700854700852
1,686	8,54700854700852
1,6865	8,54700854700852
1,687	8,54700854700852
1,6875	8,54700854700852
1,688	3,66300366300365
1,6885	-1,22100122100122
1,689	-6,10500610500608
1,6895	-1,22100122100122
1,69	3,66300366300365
1,6905	8,54700854700852
1,691	13,4310134310134
1,6915	13,4310134310134
1,692	8,54700854700852
1,6925	3,66300366300365
1,693	3,66300366300365
1,6935	8,54700854700852
1,694	8,54700854700852
1,6945	8,54700854700852
1,695	3,66300366300365
1,6955	3,66300366300365
1,696	3,66300366300365
1,6965	3,66300366300365
1,697	3,66300366300365
1,6975	3,66300366300365
1,698	3,66300366300365
1,6985	8,54700854700852
1,699	3,66300366300365
1,6995	3,66300366300365
1,7	-6,10500610500608
1,7005	-6,10500610500608
1,701	-1,22100122100122
1,7015	3,66300366300365
1,702	3,66300366300365
1,7025	-1,22100122100122
1,703	-10,989010989011
1,7035	-15,8730158730158
1,704	-25,6410256410256
1,7045	-30,5250305250304
1,705	-15,8730158730158
1,7055	-15,8730158730158
1,706	-10,989010989011
1,7065	-10,989010989011
1,707	-10,989010989011
1,7075	-6,10500610500608
1,708	-6,10500610500608
1,7085	3,66300366300365
1,709	13,4310134310134
1,7095	18,3150183150183
1,71	23,1990231990231
1,7105	32,9670329670329
1,711	47,6190476190475
1,7115	64,7130647130645
1,712	64,7130647130645
1,7125	47,6190476190475
1,713	23,1990231990231
1,7135	8,54700854700852
1,714	-1,22100122100122
1,7145	-10,989010989011
1,715	-10,989010989011
1,7155	-6,10500610500608
1,716	-1,22100122100122
1,7165	3,66300366300365
1,717	3,66300366300365
1,7175	8,54700854700852
1,718	3,66300366300365
1,7185	8,54700854700852
1,719	8,54700854700852
1,7195	8,54700854700852
1,72	3,66300366300365
1,7205	-1,22100122100122
1,721	-6,10500610500608
1,7215	-6,10500610500608
1,722	-1,22100122100122
1,7225	-1,22100122100122
1,723	-1,22100122100122
1,7235	3,66300366300365
1,724	3,66300366300365
1,7245	8,54700854700852
1,725	8,54700854700852
1,7255	13,4310134310134
1,726	8,54700854700852
1,7265	-6,10500610500608
1,727	-10,989010989011
1,7275	-10,989010989011
1,728	-6,10500610500608
1,7285	3,66300366300365
1,729	8,54700854700852
1,7295	8,54700854700852
1,73	8,54700854700852
1,7305	8,54700854700852
1,731	8,54700854700852
1,7315	8,54700854700852
1,732	8,54700854700852
1,7325	8,54700854700852
1,733	8,54700854700852
1,7335	13,4310134310134
1,734	13,4310134310134
1,7345	8,54700854700852
1,735	8,54700854700852
1,7355	8,54700854700852
1,736	13,4310134310134
1,7365	18,3150183150183
1,737	13,4310134310134
1,7375	8,54700854700852
1,738	-6,10500610500608
1,7385	-10,989010989011
1,739	-10,989010989011
1,7395	-10,989010989011
1,74	-10,989010989011
1,7405	-10,989010989011
1,741	-10,989010989011
1,7415	-10,989010989011
1,742	-10,989010989011
1,7425	-10,989010989011
1,743	-10,989010989011
1,7435	-10,989010989011
1,744	-10,989010989011
1,7445	-6,10500610500608
1,745	-1,22100122100122
1,7455	3,66300366300365
1,746	8,54700854700852
1,7465	8,54700854700852
1,747	13,4310134310134
1,7475	18,3150183150183
1,748	18,3150183150183
1,7485	18,3150183150183
1,749	13,4310134310134
1,7495	13,4310134310134
1,75	13,4310134310134
1,7505	13,4310134310134
1,751	13,4310134310134
1,7515	8,54700854700852
1,752	8,54700854700852
1,7525	8,54700854700852
1,753	8,54700854700852
1,7535	3,66300366300365
1,754	8,54700854700852
1,7545	3,66300366300365
1,755	3,66300366300365
1,7555	3,66300366300365
1,756	3,66300366300365
1,7565	3,66300366300365
1,757	3,66300366300365
1,7575	3,66300366300365
1,758	3,66300366300365
1,7585	3,66300366300365
1,759	3,66300366300365
1,7595	3,66300366300365
1,76	3,66300366300365
1,7605	3,66300366300365
1,761	3,66300366300365
1,7615	3,66300366300365
1,762	3,66300366300365
1,7625	3,66300366300365
1,763	3,66300366300365
1,7635	3,66300366300365
1,764	8,54700854700852
1,7645	8,54700854700852
1,765	8,54700854700852
1,7655	8,54700854700852
1,766	3,66300366300365
1,7665	3,66300366300365
1,767	3,66300366300365
1,7675	-6,10500610500608
1,768	-10,989010989011
1,7685	-10,989010989011
1,769	-6,10500610500608
1,7695	3,66300366300365
1,77	3,66300366300365
1,7705	3,66300366300365
1,771	8,54700854700852
1,7715	23,1990231990231
1,772	32,9670329670329
1,7725	32,9670329670329
1,773	28,083028083028
1,7735	23,1990231990231
1,774	23,1990231990231
1,7745	18,3150183150183
1,775	8,54700854700852
1,7755	8,54700854700852
1,776	3,66300366300365
1,7765	3,66300366300365
1,777	3,66300366300365
1,7775	3,66300366300365
1,778	-1,22100122100122
1,7785	-1,22100122100122
1,779	-1,22100122100122
1,7795	3,66300366300365
1,78	-1,22100122100122
1,7805	-1,22100122100122
1,781	-6,10500610500608
1,7815	-10,989010989011
1,782	-10,989010989011
1,7825	-15,8730158730158
1,783	-15,8730158730158
1,7835	-15,8730158730158
1,784	-20,7570207570207
1,7845	-30,5250305250304
1,785	-30,5250305250304
1,7855	-20,7570207570207
1,786	-10,989010989011
1,7865	-1,22100122100122
1,787	3,66300366300365
1,7875	8,54700854700852
1,788	18,3150183150183
1,7885	23,1990231990231
1,789	28,083028083028
1,7895	32,9670329670329
1,79	32,9670329670329
1,7905	28,083028083028
1,791	28,083028083028
1,7915	23,1990231990231
1,792	18,3150183150183
1,7925	13,4310134310134
1,793	13,4310134310134
1,7935	8,54700854700852
1,794	8,54700854700852
1,7945	8,54700854700852
1,795	3,66300366300365
1,7955	3,66300366300365
1,796	3,66300366300365
1,7965	3,66300366300365
1,797	3,66300366300365
1,7975	8,54700854700852
1,798	3,66300366300365
1,7985	3,66300366300365
1,799	3,66300366300365
1,7995	3,66300366300365
1,8	3,66300366300365
1,8005	-1,22100122100122
1,801	3,66300366300365
1,8015	3,66300366300365
1,802	3,66300366300365
1,8025	-1,22100122100122
1,803	3,66300366300365
1,8035	-1,22100122100122
1,804	3,66300366300365
1,8045	3,66300366300365
1,805	3,66300366300365
1,8055	3,66300366300365
1,806	3,66300366300365
1,8065	3,66300366300365
1,807	-6,10500610500608
1,8075	-6,10500610500608
1,808	-6,10500610500608
1,8085	-6,10500610500608
1,809	-6,10500610500608
1,8095	3,66300366300365
1,81	3,66300366300365
1,8105	3,66300366300365
1,811	8,54700854700852
1,8115	8,54700854700852
1,812	13,4310134310134
1,8125	13,4310134310134
1,813	13,4310134310134
1,8135	13,4310134310134
1,814	3,66300366300365
1,8145	3,66300366300365
1,815	8,54700854700852
1,8155	8,54700854700852
1,816	13,4310134310134
1,8165	18,3150183150183
1,817	18,3150183150183
1,8175	13,4310134310134
1,818	3,66300366300365
1,8185	-1,22100122100122
1,819	-6,10500610500608
1,8195	-1,22100122100122
1,82	3,66300366300365
1,8205	13,4310134310134
1,821	18,3150183150183
1,8215	18,3150183150183
1,822	18,3150183150183
1,8225	13,4310134310134
1,823	8,54700854700852
1,8235	3,66300366300365
1,824	-1,22100122100122
1,8245	-10,989010989011
1,825	-20,7570207570207
1,8255	-30,5250305250304
1,826	-25,6410256410256
1,8265	-15,8730158730158
1,827	-10,989010989011
1,8275	-10,989010989011
1,828	3,66300366300365
1,8285	3,66300366300365
1,829	8,54700854700852
1,8295	13,4310134310134
1,83	18,3150183150183
1,8305	13,4310134310134
1,831	8,54700854700852
1,8315	8,54700854700852
1,832	8,54700854700852
1,8325	-1,22100122100122
1,833	-10,989010989011
1,8335	-10,989010989011
1,834	-6,10500610500608
1,8345	3,66300366300365
1,835	13,4310134310134
1,8355	23,1990231990231
1,836	18,3150183150183
1,8365	8,54700854700852
1,837	8,54700854700852
1,8375	23,1990231990231
1,838	23,1990231990231
1,8385	23,1990231990231
1,839	8,54700854700852
1,8395	-1,22100122100122
1,84	-6,10500610500608
1,8405	-6,10500610500608
1,841	-10,989010989011
1,8415	-6,10500610500608
1,842	-1,22100122100122
1,8425	-1,22100122100122
1,843	-1,22100122100122
1,8435	3,66300366300365
1,844	3,66300366300365
1,8445	3,66300366300365
1,845	3,66300366300365
1,8455	3,66300366300365
1,846	3,66300366300365
1,8465	3,66300366300365
1,847	3,66300366300365
1,8475	3,66300366300365
1,848	8,54700854700852
1,8485	8,54700854700852
1,849	8,54700854700852
1,8495	8,54700854700852
1,85	8,54700854700852
1,8505	8,54700854700852
1,851	13,4310134310134
1,8515	18,3150183150183
1,852	18,3150183150183
1,8525	18,3150183150183
1,853	8,54700854700852
1,8535	8,54700854700852
1,854	3,66300366300365
1,8545	3,66300366300365
1,855	3,66300366300365
1,8555	3,66300366300365
1,856	3,66300366300365
1,8565	-1,22100122100122
1,857	-1,22100122100122
1,8575	-6,10500610500608
1,858	-1,22100122100122
1,8585	3,66300366300365
1,859	3,66300366300365
1,8595	3,66300366300365
1,86	3,66300366300365
1,8605	3,66300366300365
1,861	3,66300366300365
1,8615	3,66300366300365
1,862	3,66300366300365
1,8625	3,66300366300365
1,863	3,66300366300365
1,8635	3,66300366300365
1,864	3,66300366300365
1,8645	3,66300366300365
1,865	3,66300366300365
1,8655	3,66300366300365
1,866	8,54700854700852
1,8665	3,66300366300365
1,867	3,66300366300365
1,8675	3,66300366300365
1,868	3,66300366300365
1,8685	3,66300366300365
1,869	3,66300366300365
1,8695	-6,10500610500608
1,87	-6,10500610500608
1,8705	-6,10500610500608
1,871	-1,22100122100122
1,8715	3,66300366300365
1,872	3,66300366300365
1,8725	3,66300366300365
1,873	3,66300366300365
1,8735	3,66300366300365
1,874	8,54700854700852
1,8745	3,66300366300365
1,875	-6,10500610500608
1,8755	-1,22100122100122
1,876	3,66300366300365
1,8765	8,54700854700852
1,877	13,4310134310134
1,8775	18,3150183150183
1,878	23,1990231990231
1,8785	23,1990231990231
1,879	23,1990231990231
1,8795	23,1990231990231
1,88	18,3150183150183
1,8805	18,3150183150183
1,881	8,54700854700852
1,8815	3,66300366300365
1,882	-1,22100122100122
1,8825	-6,10500610500608
1,883	-10,989010989011
1,8835	-20,7570207570207
1,884	-25,6410256410256
1,8845	-25,6410256410256
1,885	-25,6410256410256
1,8855	-20,7570207570207
1,886	-10,989010989011
1,8865	-10,989010989011
1,887	-1,22100122100122
1,8875	-1,22100122100122
1,888	-1,22100122100122
1,8885	-1,22100122100122
1,889	-1,22100122100122
1,8895	-1,22100122100122
1,89	-1,22100122100122
1,8905	-1,22100122100122
1,891	3,66300366300365
1,8915	-1,22100122100122
1,892	3,66300366300365
1,8925	8,54700854700852
1,893	13,4310134310134
1,8935	18,3150183150183
1,894	23,1990231990231
1,8945	28,083028083028
1,895	23,1990231990231
1,8955	18,3150183150183
1,896	23,1990231990231
1,8965	32,9670329670329
1,897	42,7350427350426
1,8975	37,8510378510377
1,898	37,8510378510377
1,8985	32,9670329670329
1,899	23,1990231990231
1,8995	3,66300366300365
1,9	-6,10500610500608
1,9005	-15,8730158730158
1,901	-20,7570207570207
1,9015	-30,5250305250304
1,902	-40,2930402930402
1,9025	-35,4090354090353
1,903	-30,5250305250304
1,9035	-15,8730158730158
1,904	-10,989010989011
1,9045	8,54700854700852
1,905	18,3150183150183
1,9055	8,54700854700852
1,906	8,54700854700852
1,9065	8,54700854700852
1,907	13,4310134310134
1,9075	13,4310134310134
1,908	8,54700854700852
1,9085	8,54700854700852
1,909	13,4310134310134
1,9095	18,3150183150183
1,91	18,3150183150183
1,9105	13,4310134310134
1,911	13,4310134310134
1,9115	8,54700854700852
1,912	8,54700854700852
1,9125	8,54700854700852
1,913	3,66300366300365
1,9135	-1,22100122100122
1,914	-1,22100122100122
1,9145	3,66300366300365
1,915	3,66300366300365
1,9155	8,54700854700852
1,916	18,3150183150183
1,9165	18,3150183150183
1,917	8,54700854700852
1,9175	8,54700854700852
1,918	8,54700854700852
1,9185	8,54700854700852
1,919	3,66300366300365
1,9195	-1,22100122100122
1,92	3,66300366300365
1,9205	3,66300366300365
1,921	-1,22100122100122
1,9215	-1,22100122100122
1,922	-6,10500610500608
1,9225	-6,10500610500608
1,923	-6,10500610500608
1,9235	-6,10500610500608
1,924	-10,989010989011
1,9245	-6,10500610500608
1,925	-6,10500610500608
1,9255	-6,10500610500608
1,926	3,66300366300365
1,9265	3,66300366300365
1,927	3,66300366300365
1,9275	-1,22100122100122
1,928	-1,22100122100122
1,9285	-1,22100122100122
1,929	3,66300366300365
1,9295	8,54700854700852
1,93	8,54700854700852
1,9305	8,54700854700852
1,931	3,66300366300365
1,9315	3,66300366300365
1,932	3,66300366300365
1,9325	-1,22100122100122
1,933	-1,22100122100122
1,9335	3,66300366300365
1,934	3,66300366300365
1,9345	3,66300366300365
1,935	3,66300366300365
1,9355	3,66300366300365
1,936	3,66300366300365
1,9365	8,54700854700852
1,937	8,54700854700852
1,9375	8,54700854700852
1,938	13,4310134310134
1,9385	18,3150183150183
1,939	8,54700854700852
1,9395	8,54700854700852
1,94	8,54700854700852
1,9405	8,54700854700852
1,941	3,66300366300365
1,9415	3,66300366300365
1,942	3,66300366300365
1,9425	3,66300366300365
1,943	3,66300366300365
1,9435	3,66300366300365
1,944	3,66300366300365
1,9445	8,54700854700852
1,945	13,4310134310134
1,9455	18,3150183150183
1,946	18,3150183150183
1,9465	13,4310134310134
1,947	13,4310134310134
1,9475	8,54700854700852
1,948	8,54700854700852
1,9485	8,54700854700852
1,949	-1,22100122100122
1,9495	-15,8730158730158
1,95	-10,989010989011
1,9505	-10,989010989011
1,951	-1,22100122100122
1,9515	8,54700854700852
1,952	13,4310134310134
1,9525	3,66300366300365
1,953	-6,10500610500608
1,9535	-10,989010989011
1,954	-6,10500610500608
1,9545	-1,22100122100122
1,955	3,66300366300365
1,9555	3,66300366300365
1,956	8,54700854700852
1,9565	8,54700854700852
1,957	13,4310134310134
1,9575	8,54700854700852
1,958	8,54700854700852
1,9585	8,54700854700852
1,959	3,66300366300365
1,9595	3,66300366300365
1,96	3,66300366300365
1,9605	3,66300366300365
1,961	3,66300366300365
1,9615	3,66300366300365
1,962	-1,22100122100122
1,9625	3,66300366300365
1,963	3,66300366300365
1,9635	3,66300366300365
1,964	8,54700854700852
1,9645	13,4310134310134
1,965	13,4310134310134
1,9655	8,54700854700852
1,966	8,54700854700852
1,9665	3,66300366300365
1,967	-1,22100122100122
1,9675	-6,10500610500608
1,968	-10,989010989011
1,9685	-10,989010989011
1,969	-10,989010989011
1,9695	-10,989010989011
1,97	-10,989010989011
1,9705	-6,10500610500608
1,971	3,66300366300365
1,9715	18,3150183150183
1,972	28,083028083028
1,9725	37,8510378510377
1,973	32,9670329670329
1,9735	23,1990231990231
1,974	8,54700854700852
1,9745	8,54700854700852
1,975	8,54700854700852
1,9755	8,54700854700852
1,976	13,4310134310134
1,9765	18,3150183150183
1,977	18,3150183150183
1,9775	18,3150183150183
1,978	8,54700854700852
1,9785	3,66300366300365
1,979	3,66300366300365
1,9795	-1,22100122100122
1,98	-10,989010989011
1,9805	-10,989010989011
1,981	-10,989010989011
1,9815	-6,10500610500608
1,982	-6,10500610500608
1,9825	-1,22100122100122
1,983	-6,10500610500608
1,9835	-6,10500610500608
1,984	-1,22100122100122
1,9845	-1,22100122100122
1,985	-1,22100122100122
1,9855	-6,10500610500608
1,986	-6,10500610500608
1,9865	-6,10500610500608
1,987	-1,22100122100122
1,9875	-1,22100122100122
1,988	-1,22100122100122
1,9885	3,66300366300365
1,989	13,4310134310134
1,9895	18,3150183150183
1,99	18,3150183150183
1,9905	23,1990231990231
1,991	23,1990231990231
1,9915	23,1990231990231
1,992	23,1990231990231
1,9925	23,1990231990231
1,993	18,3150183150183
1,9935	13,4310134310134
1,994	3,66300366300365
1,9945	-6,10500610500608
1,995	-10,989010989011
1,9955	-10,989010989011
1,996	-10,989010989011
1,9965	-20,7570207570207
1,997	-10,989010989011
1,9975	-10,989010989011
1,998	-10,989010989011
1,9985	-10,989010989011
1,999	-10,989010989011
1,9995	-10,989010989011
2	-10,989010989011
2,0005	-6,10500610500608
2,001	3,66300366300365
2,0015	8,54700854700852
2,002	18,3150183150183
2,0025	23,1990231990231
2,003	23,1990231990231
2,0035	23,1990231990231
2,004	23,1990231990231
2,0045	23,1990231990231
2,005	18,3150183150183
2,0055	18,3150183150183
2,006	13,4310134310134
2,0065	8,54700854700852
2,007	8,54700854700852
2,0075	8,54700854700852
2,008	8,54700854700852
2,0085	3,66300366300365
2,009	-1,22100122100122
2,0095	-1,22100122100122
2,01	-6,10500610500608
2,0105	-6,10500610500608
2,011	-1,22100122100122
2,0115	3,66300366300365
2,012	3,66300366300365
2,0125	3,66300366300365
2,013	3,66300366300365
2,0135	8,54700854700852
2,014	8,54700854700852
2,0145	8,54700854700852
2,015	8,54700854700852
2,0155	8,54700854700852
2,016	13,4310134310134
2,0165	13,4310134310134
2,017	8,54700854700852
2,0175	3,66300366300365
2,018	3,66300366300365
2,0185	3,66300366300365
2,019	3,66300366300365
2,0195	8,54700854700852
2,02	8,54700854700852
2,0205	8,54700854700852
2,021	8,54700854700852
2,0215	3,66300366300365
2,022	3,66300366300365
2,0225	3,66300366300365
2,023	3,66300366300365
2,0235	-1,22100122100122
2,024	-1,22100122100122
2,0245	3,66300366300365
2,025	8,54700854700852
2,0255	8,54700854700852
2,026	13,4310134310134
2,0265	13,4310134310134
2,027	3,66300366300365
2,0275	-1,22100122100122
2,028	-10,989010989011
2,0285	-10,989010989011
2,029	-10,989010989011
2,0295	-10,989010989011
2,03	-15,8730158730158
2,0305	-15,8730158730158
2,031	-10,989010989011
2,0315	-10,989010989011
2,032	3,66300366300365
2,0325	28,083028083028
2,033	42,7350427350426
2,0335	42,7350427350426
2,034	32,9670329670329
2,0345	28,083028083028
2,035	23,1990231990231
2,0355	18,3150183150183
2,036	13,4310134310134
2,0365	8,54700854700852
2,037	8,54700854700852
2,0375	8,54700854700852
2,038	3,66300366300365
2,0385	-1,22100122100122
2,039	-1,22100122100122
2,0395	-1,22100122100122
2,04	-6,10500610500608
2,0405	-6,10500610500608
2,041	-10,989010989011
2,0415	-10,989010989011
2,042	-10,989010989011
2,0425	-10,989010989011
2,043	-10,989010989011
2,0435	-10,989010989011
2,044	-6,10500610500608
2,0445	-1,22100122100122
2,045	3,66300366300365
2,0455	3,66300366300365
2,046	8,54700854700852
2,0465	8,54700854700852
2,047	8,54700854700852
2,0475	8,54700854700852
2,048	8,54700854700852
2,0485	13,4310134310134
2,049	18,3150183150183
2,0495	18,3150183150183
2,05	13,4310134310134
2,0505	8,54700854700852
2,051	3,66300366300365
2,0515	-6,10500610500608
2,052	-6,10500610500608
2,0525	-6,10500610500608
2,053	-1,22100122100122
2,0535	3,66300366300365
2,054	-1,22100122100122
2,0545	-1,22100122100122
2,055	-6,10500610500608
2,0555	-6,10500610500608
2,056	-1,22100122100122
2,0565	-1,22100122100122
2,057	3,66300366300365
2,0575	3,66300366300365
2,058	3,66300366300365
2,0585	3,66300366300365
2,059	3,66300366300365
2,0595	3,66300366300365
2,06	3,66300366300365
2,0605	8,54700854700852
2,061	3,66300366300365
2,0615	8,54700854700852
2,062	8,54700854700852
2,0625	3,66300366300365
2,063	13,4310134310134
2,0635	18,3150183150183
2,064	18,3150183150183
2,0645	18,3150183150183
2,065	18,3150183150183
2,0655	18,3150183150183
2,066	18,3150183150183
2,0665	18,3150183150183
2,067	13,4310134310134
2,0675	8,54700854700852
2,068	-6,10500610500608
2,0685	-10,989010989011
2,069	-10,989010989011
2,0695	-10,989010989011
2,07	-15,8730158730158
2,0705	-20,7570207570207
2,071	-20,7570207570207
2,0715	-10,989010989011
2,072	-10,989010989011
2,0725	-1,22100122100122
2,073	3,66300366300365
2,0735	8,54700854700852
2,074	8,54700854700852
2,0745	8,54700854700852
2,075	8,54700854700852
2,0755	8,54700854700852
2,076	8,54700854700852
2,0765	8,54700854700852
2,077	8,54700854700852
2,0775	8,54700854700852
2,078	8,54700854700852
2,0785	13,4310134310134
2,079	18,3150183150183
2,0795	18,3150183150183
2,08	23,1990231990231
2,0805	23,1990231990231
2,081	23,1990231990231
2,0815	23,1990231990231
2,082	18,3150183150183
2,0825	8,54700854700852
2,083	3,66300366300365
2,0835	3,66300366300365
2,084	3,66300366300365
2,0845	3,66300366300365
2,085	3,66300366300365
2,0855	3,66300366300365
2,086	3,66300366300365
2,0865	8,54700854700852
2,087	-1,22100122100122
2,0875	-6,10500610500608
2,088	-10,989010989011
2,0885	-10,989010989011
2,089	-15,8730158730158
2,0895	-10,989010989011
2,09	-1,22100122100122
2,0905	3,66300366300365
2,091	8,54700854700852
2,0915	13,4310134310134
2,092	18,3150183150183
2,0925	13,4310134310134
2,093	8,54700854700852
2,0935	8,54700854700852
2,094	3,66300366300365
2,0945	-6,10500610500608
2,095	-10,989010989011
2,0955	-15,8730158730158
2,096	-10,989010989011
2,0965	-10,989010989011
2,097	-10,989010989011
2,0975	-6,10500610500608
2,098	-1,22100122100122
2,0985	3,66300366300365
2,099	3,66300366300365
2,0995	8,54700854700852
2,1	8,54700854700852
2,1005	8,54700854700852
2,101	18,3150183150183
2,1015	23,1990231990231
2,102	23,1990231990231
2,1025	18,3150183150183
2,103	8,54700854700852
2,1035	-10,989010989011
2,104	-10,989010989011
2,1045	-10,989010989011
2,105	-1,22100122100122
2,1055	8,54700854700852
2,106	18,3150183150183
2,1065	23,1990231990231
2,107	23,1990231990231
2,1075	13,4310134310134
2,108	3,66300366300365
2,1085	-1,22100122100122
2,109	-6,10500610500608
2,1095	-1,22100122100122
2,11	3,66300366300365
2,1105	3,66300366300365
2,111	8,54700854700852
2,1115	8,54700854700852
2,112	18,3150183150183
2,1125	23,1990231990231
2,113	37,8510378510377
2,1135	32,9670329670329
2,114	23,1990231990231
2,1145	8,54700854700852
2,115	3,66300366300365
2,1155	-1,22100122100122
2,116	-1,22100122100122
2,1165	3,66300366300365
2,117	3,66300366300365
2,1175	3,66300366300365
2,118	-1,22100122100122
2,1185	-1,22100122100122
2,119	-6,10500610500608
2,1195	-1,22100122100122
2,12	-1,22100122100122
2,1205	-1,22100122100122
2,121	3,66300366300365
2,1215	3,66300366300365
2,122	3,66300366300365
2,1225	3,66300366300365
2,123	-1,22100122100122
2,1235	-6,10500610500608
2,124	-1,22100122100122
2,1245	-1,22100122100122
2,125	-1,22100122100122
2,1255	-1,22100122100122
2,126	3,66300366300365
2,1265	3,66300366300365
2,127	-1,22100122100122
2,1275	3,66300366300365
2,128	3,66300366300365
2,1285	3,66300366300365
2,129	3,66300366300365
2,1295	3,66300366300365
2,13	3,66300366300365
2,1305	8,54700854700852
2,131	8,54700854700852
2,1315	8,54700854700852
2,132	3,66300366300365
2,1325	3,66300366300365
2,133	-6,10500610500608
2,1335	-10,989010989011
2,134	-10,989010989011
2,1345	-10,989010989011
2,135	-1,22100122100122
2,1355	3,66300366300365
2,136	8,54700854700852
2,1365	8,54700854700852
2,137	8,54700854700852
2,1375	8,54700854700852
2,138	8,54700854700852
2,1385	3,66300366300365
2,139	3,66300366300365
2,1395	8,54700854700852
2,14	8,54700854700852
2,1405	8,54700854700852
2,141	8,54700854700852
2,1415	8,54700854700852
2,142	8,54700854700852
2,1425	3,66300366300365
2,143	3,66300366300365
2,1435	3,66300366300365
2,144	3,66300366300365
2,1445	3,66300366300365
2,145	8,54700854700852
2,1455	8,54700854700852
2,146	8,54700854700852
2,1465	8,54700854700852
2,147	18,3150183150183
2,1475	23,1990231990231
2,148	18,3150183150183
2,1485	8,54700854700852
2,149	3,66300366300365
2,1495	3,66300366300365
2,15	3,66300366300365
2,1505	8,54700854700852
2,151	8,54700854700852
2,1515	8,54700854700852
2,152	3,66300366300365
2,1525	8,54700854700852
2,153	-1,22100122100122
2,1535	-6,10500610500608
2,154	-10,989010989011
2,1545	-10,989010989011
2,155	-6,10500610500608
2,1555	3,66300366300365
2,156	3,66300366300365
2,1565	3,66300366300365
2,157	8,54700854700852
2,1575	3,66300366300365
2,158	-6,10500610500608
2,1585	-10,989010989011
2,159	-10,989010989011
2,1595	-10,989010989011
2,16	-10,989010989011
2,1605	3,66300366300365
2,161	8,54700854700852
2,1615	3,66300366300365
2,162	8,54700854700852
2,1625	13,4310134310134
2,163	8,54700854700852
2,1635	8,54700854700852
2,164	3,66300366300365
2,1645	-6,10500610500608
2,165	-6,10500610500608
2,1655	-1,22100122100122
2,166	-1,22100122100122
2,1665	-10,989010989011
2,167	-10,989010989011
2,1675	-1,22100122100122
2,168	8,54700854700852
2,1685	23,1990231990231
2,169	23,1990231990231
2,1695	18,3150183150183
2,17	8,54700854700852
2,1705	8,54700854700852
2,171	8,54700854700852
2,1715	8,54700854700852
2,172	8,54700854700852
2,1725	8,54700854700852
2,173	8,54700854700852
2,1735	3,66300366300365
2,174	3,66300366300365
2,1745	3,66300366300365
2,175	3,66300366300365
2,1755	3,66300366300365
2,176	8,54700854700852
2,1765	13,4310134310134
2,177	13,4310134310134
2,1775	13,4310134310134
2,178	8,54700854700852
2,1785	8,54700854700852
2,179	8,54700854700852
2,1795	8,54700854700852
2,18	8,54700854700852
2,1805	3,66300366300365
2,181	3,66300366300365
2,1815	3,66300366300365
2,182	3,66300366300365
2,1825	3,66300366300365
2,183	3,66300366300365
2,1835	3,66300366300365
2,184	8,54700854700852
2,1845	3,66300366300365
2,185	3,66300366300365
2,1855	3,66300366300365
2,186	3,66300366300365
2,1865	3,66300366300365
2,187	3,66300366300365
2,1875	3,66300366300365
2,188	3,66300366300365
2,1885	3,66300366300365
2,189	3,66300366300365
2,1895	3,66300366300365
2,19	3,66300366300365
2,1905	8,54700854700852
2,191	18,3150183150183
2,1915	13,4310134310134
2,192	8,54700854700852
2,1925	3,66300366300365
2,193	-1,22100122100122
2,1935	-1,22100122100122
2,194	3,66300366300365
2,1945	3,66300366300365
2,195	8,54700854700852
2,1955	13,4310134310134
2,196	8,54700854700852
2,1965	3,66300366300365
2,197	3,66300366300365
2,1975	3,66300366300365
2,198	3,66300366300365
2,1985	3,66300366300365
2,199	3,66300366300365
2,1995	-1,22100122100122
2,2	-1,22100122100122
2,2005	-10,989010989011
2,201	-10,989010989011
2,2015	-10,989010989011
2,202	-10,989010989011
2,2025	-6,10500610500608
2,203	-1,22100122100122
2,2035	3,66300366300365
2,204	3,66300366300365
2,2045	8,54700854700852
2,205	8,54700854700852
2,2055	8,54700854700852
2,206	8,54700854700852
2,2065	8,54700854700852
2,207	3,66300366300365
2,2075	8,54700854700852
2,208	8,54700854700852
2,2085	8,54700854700852
2,209	8,54700854700852
2,2095	3,66300366300365
2,21	3,66300366300365
2,2105	3,66300366300365
2,211	3,66300366300365
2,2115	3,66300366300365
2,212	8,54700854700852
2,2125	8,54700854700852
2,213	8,54700854700852
2,2135	3,66300366300365
2,214	3,66300366300365
2,2145	3,66300366300365
2,215	3,66300366300365
2,2155	3,66300366300365
2,216	3,66300366300365
2,2165	3,66300366300365
2,217	3,66300366300365
2,2175	3,66300366300365
2,218	3,66300366300365
2,2185	8,54700854700852
2,219	8,54700854700852
2,2195	3,66300366300365
2,22	3,66300366300365
2,2205	3,66300366300365
2,221	3,66300366300365
2,2215	3,66300366300365
2,222	3,66300366300365
2,2225	3,66300366300365
2,223	3,66300366300365
2,2235	8,54700854700852
2,224	8,54700854700852
2,2245	8,54700854700852
2,225	8,54700854700852
2,2255	8,54700854700852
2,226	8,54700854700852
2,2265	8,54700854700852
2,227	8,54700854700852
2,2275	8,54700854700852
2,228	8,54700854700852
2,2285	3,66300366300365
2,229	-1,22100122100122
2,2295	-1,22100122100122
2,23	3,66300366300365
2,2305	3,66300366300365
2,231	8,54700854700852
2,2315	8,54700854700852
2,232	8,54700854700852
2,2325	3,66300366300365
2,233	-10,989010989011
2,2335	-20,7570207570207
2,234	-15,8730158730158
2,2345	-10,989010989011
2,235	-1,22100122100122
2,2355	3,66300366300365
2,236	3,66300366300365
2,2365	3,66300366300365
2,237	3,66300366300365
2,2375	3,66300366300365
2,238	3,66300366300365
2,2385	3,66300366300365
2,239	3,66300366300365
2,2395	3,66300366300365
2,24	8,54700854700852
2,2405	8,54700854700852
2,241	8,54700854700852
2,2415	8,54700854700852
2,242	8,54700854700852
2,2425	8,54700854700852
2,243	18,3150183150183
2,2435	18,3150183150183
2,244	18,3150183150183
2,2445	18,3150183150183
2,245	23,1990231990231
2,2455	23,1990231990231
2,246	18,3150183150183
2,2465	8,54700854700852
2,247	8,54700854700852
2,2475	3,66300366300365
2,248	-1,22100122100122
2,2485	3,66300366300365
2,249	3,66300366300365
2,2495	-1,22100122100122
2,25	-10,989010989011
2,2505	-15,8730158730158
2,251	-15,8730158730158
2,2515	-10,989010989011
2,252	-6,10500610500608
2,2525	3,66300366300365
2,253	-1,22100122100122
2,2535	-6,10500610500608
2,254	-10,989010989011
2,2545	-25,6410256410256
2,255	-40,2930402930402
2,2555	-40,2930402930402
2,256	-35,4090354090353
2,2565	-20,7570207570207
2,257	-6,10500610500608
2,2575	8,54700854700852
2,258	18,3150183150183
2,2585	23,1990231990231
2,259	23,1990231990231
2,2595	28,083028083028
2,26	32,9670329670329
2,2605	47,6190476190475
2,261	54,9450549450548
2,2615	42,7350427350426
2,262	28,083028083028
2,2625	18,3150183150183
2,263	8,54700854700852
2,2635	3,66300366300365
2,264	-1,22100122100122
2,2645	-1,22100122100122
2,265	3,66300366300365
2,2655	8,54700854700852
2,266	8,54700854700852
2,2665	8,54700854700852
2,267	3,66300366300365
2,2675	3,66300366300365
2,268	3,66300366300365
2,2685	3,66300366300365
2,269	3,66300366300365
2,2695	3,66300366300365
2,27	8,54700854700852
2,2705	8,54700854700852
2,271	8,54700854700852
2,2715	8,54700854700852
2,272	8,54700854700852
2,2725	8,54700854700852
2,273	3,66300366300365
2,2735	3,66300366300365
2,274	3,66300366300365
2,2745	3,66300366300365
2,275	3,66300366300365
2,2755	3,66300366300365
2,276	3,66300366300365
2,2765	3,66300366300365
2,277	3,66300366300365
2,2775	3,66300366300365
2,278	3,66300366300365
2,2785	3,66300366300365
2,279	3,66300366300365
2,2795	3,66300366300365
2,28	3,66300366300365
2,2805	-1,22100122100122
2,281	-1,22100122100122
2,2815	-6,10500610500608
2,282	-10,989010989011
2,2825	-10,989010989011
2,283	-6,10500610500608
2,2835	-1,22100122100122
2,284	-1,22100122100122
2,2845	3,66300366300365
2,285	3,66300366300365
2,2855	3,66300366300365
2,286	-1,22100122100122
2,2865	3,66300366300365
2,287	3,66300366300365
2,2875	3,66300366300365
2,288	3,66300366300365
2,2885	3,66300366300365
2,289	3,66300366300365
2,2895	8,54700854700852
2,29	8,54700854700852
2,2905	13,4310134310134
2,291	13,4310134310134
2,2915	13,4310134310134
2,292	8,54700854700852
2,2925	8,54700854700852
2,293	13,4310134310134
2,2935	13,4310134310134
2,294	8,54700854700852
2,2945	3,66300366300365
2,295	8,54700854700852
2,2955	8,54700854700852
2,296	8,54700854700852
2,2965	8,54700854700852
2,297	8,54700854700852
2,2975	3,66300366300365
2,298	8,54700854700852
2,2985	3,66300366300365
2,299	8,54700854700852
2,2995	8,54700854700852
2,3	8,54700854700852
2,3005	3,66300366300365
2,301	3,66300366300365
2,3015	-1,22100122100122
2,302	-6,10500610500608
2,3025	-10,989010989011
2,303	-15,8730158730158
2,3035	-20,7570207570207
2,304	-30,5250305250304
2,3045	-25,6410256410256
2,305	-10,989010989011
2,3055	3,66300366300365
2,306	8,54700854700852
2,3065	23,1990231990231
2,307	42,7350427350426
2,3075	59,8290598290596
2,308	64,7130647130645
2,3085	47,6190476190475
2,309	23,1990231990231
2,3095	-1,22100122100122
2,31	-10,989010989011
2,3105	-15,8730158730158
2,311	-25,6410256410256
2,3115	-35,4090354090353
2,312	-45,177045177045
2,3125	-52,5030525030523
2,313	-45,177045177045
2,3135	-30,5250305250304
2,314	-10,989010989011
2,3145	-6,10500610500608
2,315	8,54700854700852
2,3155	18,3150183150183
2,316	23,1990231990231
2,3165	28,083028083028
2,317	28,083028083028
2,3175	28,083028083028
2,318	28,083028083028
2,3185	28,083028083028
2,319	23,1990231990231
2,3195	23,1990231990231
2,32	18,3150183150183
2,3205	3,66300366300365
2,321	3,66300366300365
2,3215	3,66300366300365
2,322	13,4310134310134
2,3225	13,4310134310134
2,323	8,54700854700852
2,3235	8,54700854700852
2,324	8,54700854700852
2,3245	13,4310134310134
2,325	13,4310134310134
2,3255	8,54700854700852
2,326	3,66300366300365
2,3265	3,66300366300365
2,327	3,66300366300365
2,3275	3,66300366300365
2,328	3,66300366300365
2,3285	-1,22100122100122
2,329	-1,22100122100122
2,3295	-1,22100122100122
2,33	3,66300366300365
2,3305	3,66300366300365
2,331	3,66300366300365
2,3315	8,54700854700852
2,332	13,4310134310134
2,3325	8,54700854700852
2,333	3,66300366300365
2,3335	3,66300366300365
2,334	3,66300366300365
2,3345	3,66300366300365
2,335	3,66300366300365
2,3355	-1,22100122100122
2,336	-1,22100122100122
2,3365	-6,10500610500608
2,337	-6,10500610500608
2,3375	-1,22100122100122
2,338	-1,22100122100122
2,3385	-1,22100122100122
2,339	-1,22100122100122
2,3395	-1,22100122100122
2,34	-1,22100122100122
2,3405	3,66300366300365
2,341	3,66300366300365
2,3415	3,66300366300365
2,342	3,66300366300365
2,3425	8,54700854700852
2,343	8,54700854700852
2,3435	13,4310134310134
2,344	18,3150183150183
2,3445	18,3150183150183
2,345	13,4310134310134
2,3455	8,54700854700852
2,346	8,54700854700852
2,3465	3,66300366300365
2,347	-1,22100122100122
2,3475	-6,10500610500608
2,348	-10,989010989011
2,3485	-10,989010989011
2,349	-10,989010989011
2,3495	-10,989010989011
2,35	-15,8730158730158
2,3505	-10,989010989011
2,351	-6,10500610500608
2,3515	3,66300366300365
2,352	18,3150183150183
2,3525	18,3150183150183
2,353	28,083028083028
2,3535	23,1990231990231
2,354	8,54700854700852
2,3545	-6,10500610500608
2,355	-1,22100122100122
2,3555	8,54700854700852
2,356	13,4310134310134
2,3565	18,3150183150183
2,357	18,3150183150183
2,3575	18,3150183150183
2,358	18,3150183150183
2,3585	13,4310134310134
2,359	13,4310134310134
2,3595	8,54700854700852
2,36	8,54700854700852
2,3605	8,54700854700852
2,361	3,66300366300365
2,3615	3,66300366300365
2,362	-6,10500610500608
2,3625	-6,10500610500608
2,363	-10,989010989011
2,3635	-10,989010989011
2,364	-6,10500610500608
2,3645	-1,22100122100122
2,365	-1,22100122100122
2,3655	-1,22100122100122
2,366	3,66300366300365
2,3665	-1,22100122100122
2,367	3,66300366300365
2,3675	3,66300366300365
2,368	3,66300366300365
2,3685	3,66300366300365
2,369	3,66300366300365
2,3695	3,66300366300365
2,37	3,66300366300365
2,3705	3,66300366300365
2,371	8,54700854700852
2,3715	8,54700854700852
2,372	8,54700854700852
2,3725	8,54700854700852
2,373	8,54700854700852
2,3735	3,66300366300365
2,374	3,66300366300365
2,3745	3,66300366300365
2,375	3,66300366300365
2,3755	3,66300366300365
2,376	8,54700854700852
2,3765	8,54700854700852
2,377	18,3150183150183
2,3775	18,3150183150183
2,378	18,3150183150183
2,3785	13,4310134310134
2,379	8,54700854700852
2,3795	8,54700854700852
2,38	8,54700854700852
2,3805	8,54700854700852
2,381	3,66300366300365
2,3815	8,54700854700852
2,382	3,66300366300365
2,3825	3,66300366300365
2,383	3,66300366300365
2,3835	-1,22100122100122
2,384	-6,10500610500608
2,3845	-6,10500610500608
2,385	-10,989010989011
2,3855	-10,989010989011
2,386	-1,22100122100122
2,3865	3,66300366300365
2,387	8,54700854700852
2,3875	13,4310134310134
2,388	23,1990231990231
2,3885	18,3150183150183
2,389	13,4310134310134
2,3895	8,54700854700852
2,39	3,66300366300365
2,3905	-6,10500610500608
2,391	-10,989010989011
2,3915	-10,989010989011
2,392	-10,989010989011
2,3925	-20,7570207570207
2,393	-25,6410256410256
2,3935	-15,8730158730158
2,394	3,66300366300365
2,3945	23,1990231990231
2,395	23,1990231990231
2,3955	18,3150183150183
2,396	8,54700854700852
2,3965	8,54700854700852
2,397	3,66300366300365
2,3975	3,66300366300365
2,398	3,66300366300365
2,3985	3,66300366300365
2,399	3,66300366300365
2,3995	3,66300366300365
2,4	-1,22100122100122
2,4005	-1,22100122100122
2,401	-6,10500610500608
2,4015	-1,22100122100122
2,402	3,66300366300365
2,4025	8,54700854700852
2,403	18,3150183150183
2,4035	18,3150183150183
2,404	23,1990231990231
2,4045	23,1990231990231
2,405	23,1990231990231
2,4055	23,1990231990231
2,406	23,1990231990231
2,4065	13,4310134310134
2,407	8,54700854700852
2,4075	3,66300366300365
2,408	3,66300366300365
2,4085	8,54700854700852
2,409	8,54700854700852
2,4095	8,54700854700852
2,41	3,66300366300365
2,4105	3,66300366300365
2,411	3,66300366300365
2,4115	3,66300366300365
2,412	-1,22100122100122
2,4125	-1,22100122100122
2,413	3,66300366300365
2,4135	3,66300366300365
2,414	-6,10500610500608
2,4145	-6,10500610500608
2,415	-1,22100122100122
2,4155	8,54700854700852
2,416	18,3150183150183
2,4165	18,3150183150183
2,417	13,4310134310134
2,4175	8,54700854700852
2,418	3,66300366300365
2,4185	3,66300366300365
2,419	3,66300366300365
2,4195	-1,22100122100122
2,42	-6,10500610500608
2,4205	-6,10500610500608
2,421	-6,10500610500608
2,4215	-1,22100122100122
2,422	3,66300366300365
2,4225	3,66300366300365
2,423	3,66300366300365
2,4235	3,66300366300365
2,424	3,66300366300365
2,4245	3,66300366300365
2,425	3,66300366300365
2,4255	8,54700854700852
2,426	8,54700854700852
2,4265	3,66300366300365
2,427	-1,22100122100122
2,4275	-6,10500610500608
2,428	-1,22100122100122
2,4285	-1,22100122100122
2,429	3,66300366300365
2,4295	3,66300366300365
2,43	3,66300366300365
2,4305	3,66300366300365
2,431	3,66300366300365
2,4315	3,66300366300365
2,432	3,66300366300365
2,4325	3,66300366300365
2,433	3,66300366300365
2,4335	3,66300366300365
2,434	3,66300366300365
2,4345	3,66300366300365
2,435	-1,22100122100122
2,4355	-6,10500610500608
2,436	-1,22100122100122
2,4365	3,66300366300365
2,437	8,54700854700852
2,4375	8,54700854700852
2,438	8,54700854700852
2,4385	8,54700854700852
2,439	13,4310134310134
2,4395	18,3150183150183
2,44	3,66300366300365
2,4405	-1,22100122100122
2,441	3,66300366300365
2,4415	3,66300366300365
2,442	3,66300366300365
2,4425	3,66300366300365
2,443	3,66300366300365
2,4435	3,66300366300365
2,444	3,66300366300365
2,4445	3,66300366300365
2,445	3,66300366300365
2,4455	8,54700854700852
2,446	8,54700854700852
2,4465	3,66300366300365
2,447	8,54700854700852
2,4475	3,66300366300365
2,448	-1,22100122100122
2,4485	-6,10500610500608
2,449	-6,10500610500608
2,4495	-1,22100122100122
2,45	-1,22100122100122
2,4505	3,66300366300365
2,451	3,66300366300365
2,4515	8,54700854700852
2,452	8,54700854700852
2,4525	18,3150183150183
2,453	23,1990231990231
2,4535	28,083028083028
2,454	23,1990231990231
2,4545	23,1990231990231
2,455	18,3150183150183
2,4555	8,54700854700852
2,456	8,54700854700852
2,4565	3,66300366300365
2,457	-6,10500610500608
2,4575	-20,7570207570207
2,458	-35,4090354090353
2,4585	-35,4090354090353
2,459	-30,5250305250304
2,4595	-15,8730158730158
2,46	-10,989010989011
2,4605	-1,22100122100122
2,461	8,54700854700852
2,4615	8,54700854700852
2,462	13,4310134310134
2,4625	13,4310134310134
2,463	8,54700854700852
2,4635	3,66300366300365
2,464	8,54700854700852
2,4645	8,54700854700852
2,465	8,54700854700852
2,4655	8,54700854700852
2,466	8,54700854700852
2,4665	8,54700854700852
2,467	3,66300366300365
2,4675	3,66300366300365
2,468	8,54700854700852
2,4685	13,4310134310134
2,469	18,3150183150183
2,4695	18,3150183150183
2,47	18,3150183150183
2,4705	8,54700854700852
2,471	3,66300366300365
2,4715	-1,22100122100122
2,472	-1,22100122100122
2,4725	-1,22100122100122
2,473	3,66300366300365
2,4735	18,3150183150183
2,474	32,9670329670329
2,4745	37,8510378510377
2,475	42,7350427350426
2,4755	42,7350427350426
2,476	28,083028083028
2,4765	13,4310134310134
2,477	-1,22100122100122
2,4775	-10,989010989011
2,478	-10,989010989011
2,4785	-10,989010989011
2,479	-10,989010989011
2,4795	-6,10500610500608
2,48	-6,10500610500608
2,4805	-10,989010989011
2,481	-25,6410256410256
2,4815	-25,6410256410256
2,482	-20,7570207570207
2,4825	-20,7570207570207
2,483	-20,7570207570207
2,4835	-10,989010989011
2,484	-10,989010989011
2,4845	-6,10500610500608
2,485	-6,10500610500608
2,4855	-1,22100122100122
2,486	8,54700854700852
2,4865	8,54700854700852
2,487	18,3150183150183
2,4875	8,54700854700852
2,488	8,54700854700852
2,4885	8,54700854700852
2,489	8,54700854700852
2,4895	3,66300366300365
2,49	8,54700854700852
2,4905	8,54700854700852
2,491	8,54700854700852
2,4915	8,54700854700852
2,492	8,54700854700852
2,4925	8,54700854700852
2,493	13,4310134310134
2,4935	13,4310134310134
2,494	13,4310134310134
2,4945	8,54700854700852
2,495	3,66300366300365
2,4955	8,54700854700852
2,496	8,54700854700852
2,4965	8,54700854700852
2,497	13,4310134310134
2,4975	18,3150183150183
2,498	13,4310134310134
2,4985	13,4310134310134
2,499	13,4310134310134
2,4995	8,54700854700852
2,5	8,54700854700852
2,5005	8,54700854700852
2,501	8,54700854700852
2,5015	8,54700854700852
2,502	3,66300366300365
2,5025	3,66300366300365
2,503	3,66300366300365
2,5035	-1,22100122100122
2,504	3,66300366300365
2,5045	3,66300366300365
2,505	3,66300366300365
2,5055	3,66300366300365
2,506	8,54700854700852
2,5065	3,66300366300365
2,507	8,54700854700852
2,5075	8,54700854700852
2,508	8,54700854700852
2,5085	8,54700854700852
2,509	8,54700854700852
2,5095	3,66300366300365
2,51	-1,22100122100122
2,5105	-6,10500610500608
2,511	-6,10500610500608
2,5115	-6,10500610500608
2,512	-10,989010989011
2,5125	-10,989010989011
2,513	-6,10500610500608
2,5135	-1,22100122100122
2,514	3,66300366300365
2,5145	3,66300366300365
2,515	3,66300366300365
2,5155	3,66300366300365
2,516	3,66300366300365
2,5165	8,54700854700852
2,517	8,54700854700852
2,5175	8,54700854700852
2,518	8,54700854700852
2,5185	8,54700854700852
2,519	3,66300366300365
2,5195	8,54700854700852
2,52	8,54700854700852
2,5205	8,54700854700852
2,521	8,54700854700852
2,5215	8,54700854700852
2,522	8,54700854700852
2,5225	3,66300366300365
2,523	3,66300366300365
2,5235	3,66300366300365
2,524	3,66300366300365
2,5245	3,66300366300365
2,525	3,66300366300365
2,5255	-1,22100122100122
2,526	-1,22100122100122
2,5265	-1,22100122100122
2,527	3,66300366300365
2,5275	3,66300366300365
2,528	3,66300366300365
2,5285	3,66300366300365
2,529	3,66300366300365
2,5295	-1,22100122100122
2,53	8,54700854700852
2,5305	13,4310134310134
2,531	18,3150183150183
2,5315	13,4310134310134
2,532	13,4310134310134
2,5325	8,54700854700852
2,533	8,54700854700852
2,5335	8,54700854700852
2,534	3,66300366300365
2,5345	3,66300366300365
2,535	-6,10500610500608
2,5355	-15,8730158730158
