0	-10,989010989011
0,0005	-6,10500610500608
0,001	-6,10500610500608
0,0015	-1,22100122100122
0,002	-6,10500610500608
0,0025	-6,10500610500608
0,003	-10,989010989011
0,0035	-6,10500610500608
0,004	-6,10500610500608
0,0045	-6,10500610500608
0,005	-1,22100122100122
0,0055	8,54700854700852
0,006	23,1990231990231
0,0065	23,1990231990231
0,007	13,4310134310134
0,0075	8,54700854700852
0,008	3,66300366300365
0,0085	-1,22100122100122
0,009	-6,10500610500608
0,0095	-6,10500610500608
0,01	-1,22100122100122
0,0105	-1,22100122100122
0,011	-1,22100122100122
0,0115	8,54700854700852
0,012	18,3150183150183
0,0125	8,54700854700852
0,013	-6,10500610500608
0,0135	-15,8730158730158
0,014	-20,7570207570207
0,0145	-15,8730158730158
0,015	-20,7570207570207
0,0155	-20,7570207570207
0,016	-20,7570207570207
0,0165	-20,7570207570207
0,017	-10,989010989011
0,0175	-6,10500610500608
0,018	8,54700854700852
0,0185	32,9670329670329
0,019	64,7130647130645
0,0195	113,553113553113
0,02	169,71916971917
0,0205	155,067155067155
0,021	89,1330891330888
0,0215	37,8510378510377
0,022	18,3150183150183
0,0225	3,66300366300365
0,023	-1,22100122100122
0,0235	-6,10500610500608
0,024	-10,989010989011
0,0245	-10,989010989011
0,025	-20,7570207570207
0,0255	-30,5250305250304
0,026	-35,4090354090353
0,0265	-40,2930402930402
0,027	-57,3870573870572
0,0275	-62,2710622710621
0,028	-57,3870573870572
0,0285	-35,4090354090353
0,029	-10,989010989011
0,0295	3,66300366300365
0,03	18,3150183150183
0,0305	23,1990231990231
0,031	23,1990231990231
0,0315	8,54700854700852
0,032	-6,10500610500608
0,0325	-10,989010989011
0,033	-10,989010989011
0,0335	-10,989010989011
0,034	-6,10500610500608
0,0345	3,66300366300365
0,035	8,54700854700852
0,0355	8,54700854700852
0,036	3,66300366300365
0,0365	13,4310134310134
0,037	28,083028083028
0,0375	32,9670329670329
0,038	18,3150183150183
0,0385	13,4310134310134
0,039	13,4310134310134
0,0395	23,1990231990231
0,04	23,1990231990231
0,0405	28,083028083028
0,041	23,1990231990231
0,0415	3,66300366300365
0,042	-15,8730158730158
0,0425	-10,989010989011
0,043	18,3150183150183
0,0435	13,4310134310134
0,044	-1,22100122100122
0,0445	-6,10500610500608
0,045	-6,10500610500608
0,0455	-6,10500610500608
0,046	-1,22100122100122
0,0465	8,54700854700852
0,047	23,1990231990231
0,0475	42,7350427350426
0,048	47,6190476190475
0,0485	42,7350427350426
0,049	23,1990231990231
0,0495	3,66300366300365
0,05	-10,989010989011
0,0505	-10,989010989011
0,051	-10,989010989011
0,0515	-10,989010989011
0,052	-1,22100122100122
0,0525	3,66300366300365
0,053	8,54700854700852
0,0535	13,4310134310134
0,054	13,4310134310134
0,0545	18,3150183150183
0,055	28,083028083028
0,0555	32,9670329670329
0,056	18,3150183150183
0,0565	-1,22100122100122
0,057	-10,989010989011
0,0575	-20,7570207570207
0,058	-40,2930402930402
0,0585	-52,5030525030523
0,059	-30,5250305250304
0,0595	-10,989010989011
0,06	-30,5250305250304
0,0605	-57,3870573870572
0,061	-76,9230769230767
0,0615	-106,227106227106
0,062	-115,995115995116
0,0625	-101,343101343101
0,063	-72,0390720390718
0,0635	-30,5250305250304
0,064	-10,989010989011
0,0645	8,54700854700852
0,065	18,3150183150183
0,0655	18,3150183150183
0,066	23,1990231990231
0,0665	42,7350427350426
0,067	103,785103785103
0,0675	179,48717948718
0,068	223,443223443224
0,0685	208,791208791209
0,069	147,741147741148
0,0695	94,0170940170937
0,07	47,6190476190475
0,0705	23,1990231990231
0,071	13,4310134310134
0,0715	3,66300366300365
0,072	-6,10500610500608
0,0725	-15,8730158730158
0,073	-20,7570207570207
0,0735	-20,7570207570207
0,074	-30,5250305250304
0,0745	-25,6410256410256
0,075	-20,7570207570207
0,0755	-20,7570207570207
0,076	-15,8730158730158
0,0765	-10,989010989011
0,077	-6,10500610500608
0,0775	-10,989010989011
0,078	-20,7570207570207
0,0785	-30,5250305250304
0,079	-30,5250305250304
0,0795	-20,7570207570207
0,08	-10,989010989011
0,0805	-10,989010989011
0,081	-10,989010989011
0,0815	-10,989010989011
0,082	-10,989010989011
0,0825	-10,989010989011
0,083	-6,10500610500608
0,0835	3,66300366300365
0,084	8,54700854700852
0,0845	13,4310134310134
0,085	23,1990231990231
0,0855	37,8510378510377
0,086	47,6190476190475
0,0865	54,9450549450548
0,087	47,6190476190475
0,0875	37,8510378510377
0,088	23,1990231990231
0,0885	3,66300366300365
0,089	-1,22100122100122
0,0895	-6,10500610500608
0,09	-6,10500610500608
0,0905	-6,10500610500608
0,091	-10,989010989011
0,0915	-10,989010989011
0,092	-10,989010989011
0,0925	-10,989010989011
0,093	-10,989010989011
0,0935	-10,989010989011
0,094	-6,10500610500608
0,0945	-10,989010989011
0,095	-30,5250305250304
0,0955	-57,3870573870572
0,096	-67,1550671550669
0,0965	-52,5030525030523
0,097	-35,4090354090353
0,0975	-20,7570207570207
0,098	-1,22100122100122
0,0985	13,4310134310134
0,099	8,54700854700852
0,0995	-6,10500610500608
0,1	-20,7570207570207
0,1005	-20,7570207570207
0,101	8,54700854700852
0,1015	79,3650793650791
0,102	184,371184371185
0,1025	247,863247863248
0,103	218,559218559219
0,1035	113,553113553113
0,104	18,3150183150183
0,1045	-25,6410256410256
0,105	-35,4090354090353
0,1055	-35,4090354090353
0,106	-25,6410256410256
0,1065	-25,6410256410256
0,107	-30,5250305250304
0,1075	-30,5250305250304
0,108	-15,8730158730158
0,1085	-1,22100122100122
0,109	23,1990231990231
0,1095	28,083028083028
0,11	18,3150183150183
0,1105	3,66300366300365
0,111	-6,10500610500608
0,1115	-15,8730158730158
0,112	-25,6410256410256
0,1125	-30,5250305250304
0,113	-52,5030525030523
0,1135	-62,2710622710621
0,114	-72,0390720390718
0,1145	-91,5750915750913
0,115	-101,343101343101
0,1155	-86,6910866910864
0,116	-62,2710622710621
0,1165	-25,6410256410256
0,117	-10,989010989011
0,1175	8,54700854700852
0,118	42,7350427350426
0,1185	84,249084249084
0,119	128,205128205129
0,1195	174,603174603175
0,12	179,48717948718
0,1205	133,089133089133
0,121	84,249084249084
0,1215	54,9450549450548
0,122	47,6190476190475
0,1225	47,6190476190475
0,123	47,6190476190475
0,1235	37,8510378510377
0,124	-10,989010989011
0,1245	-57,3870573870572
0,125	-76,9230769230767
0,1255	-57,3870573870572
0,126	-25,6410256410256
0,1265	-1,22100122100122
0,127	13,4310134310134
0,1275	-1,22100122100122
0,128	-25,6410256410256
0,1285	-45,177045177045
0,129	-52,5030525030523
0,1295	-45,177045177045
0,13	-40,2930402930402
0,1305	-35,4090354090353
0,131	-30,5250305250304
0,1315	-30,5250305250304
0,132	-20,7570207570207
0,1325	-15,8730158730158
0,133	-10,989010989011
0,1335	-10,989010989011
0,134	-10,989010989011
0,1345	-6,10500610500608
0,135	-1,22100122100122
0,1355	3,66300366300365
0,136	8,54700854700852
0,1365	18,3150183150183
0,137	23,1990231990231
0,1375	23,1990231990231
0,138	18,3150183150183
0,1385	3,66300366300365
0,139	-10,989010989011
0,1395	-20,7570207570207
0,14	-15,8730158730158
0,1405	-1,22100122100122
0,141	18,3150183150183
0,1415	28,083028083028
0,142	32,9670329670329
0,1425	28,083028083028
0,143	28,083028083028
0,1435	23,1990231990231
0,144	23,1990231990231
0,1445	18,3150183150183
0,145	18,3150183150183
0,1455	8,54700854700852
0,146	-10,989010989011
0,1465	-10,989010989011
0,147	-10,989010989011
0,1475	-1,22100122100122
0,148	3,66300366300365
0,1485	8,54700854700852
0,149	8,54700854700852
0,1495	3,66300366300365
0,15	3,66300366300365
0,1505	3,66300366300365
0,151	8,54700854700852
0,1515	13,4310134310134
0,152	23,1990231990231
0,1525	32,9670329670329
0,153	32,9670329670329
0,1535	23,1990231990231
0,154	23,1990231990231
0,1545	23,1990231990231
0,155	28,083028083028
0,1555	28,083028083028
0,156	13,4310134310134
0,1565	-1,22100122100122
0,157	-10,989010989011
0,1575	-20,7570207570207
0,158	-30,5250305250304
0,1585	-30,5250305250304
0,159	-30,5250305250304
0,1595	-35,4090354090353
0,16	-40,2930402930402
0,1605	-45,177045177045
0,161	-30,5250305250304
0,1615	-10,989010989011
0,162	18,3150183150183
0,1625	79,3650793650791
0,163	147,741147741148
0,1635	155,067155067155
0,164	108,669108669108
0,1645	47,6190476190475
0,165	3,66300366300365
0,1655	-15,8730158730158
0,166	-25,6410256410256
0,1665	-30,5250305250304
0,167	-30,5250305250304
0,1675	-30,5250305250304
0,168	-45,177045177045
0,1685	-52,5030525030523
0,169	-45,177045177045
0,1695	-40,2930402930402
0,17	-30,5250305250304
0,1705	-10,989010989011
0,171	23,1990231990231
0,1715	69,5970695970694
0,172	94,0170940170937
0,1725	103,785103785103
0,173	74,4810744810742
0,1735	32,9670329670329
0,174	3,66300366300365
0,1745	-20,7570207570207
0,175	-30,5250305250304
0,1755	-40,2930402930402
0,176	-62,2710622710621
0,1765	-76,9230769230767
0,177	-76,9230769230767
0,1775	-86,6910866910864
0,178	-81,8070818070815
0,1785	-72,0390720390718
0,179	-40,2930402930402
0,1795	23,1990231990231
0,18	94,0170940170937
0,1805	142,857142857143
0,181	155,067155067155
0,1815	137,973137973138
0,182	113,553113553113
0,1825	113,553113553113
0,183	137,973137973138
0,1835	147,741147741148
0,184	118,437118437118
0,1845	69,5970695970694
0,185	8,54700854700852
0,1855	-45,177045177045
0,186	-62,2710622710621
0,1865	-40,2930402930402
0,187	-25,6410256410256
0,1875	-35,4090354090353
0,188	-57,3870573870572
0,1885	-72,0390720390718
0,189	-76,9230769230767
0,1895	-76,9230769230767
0,19	-67,1550671550669
0,1905	-57,3870573870572
0,191	-45,177045177045
0,1915	-35,4090354090353
0,192	-15,8730158730158
0,1925	-10,989010989011
0,193	-10,989010989011
0,1935	-10,989010989011
0,194	-10,989010989011
0,1945	-6,10500610500608
0,195	-6,10500610500608
0,1955	-1,22100122100122
0,196	-1,22100122100122
0,1965	-1,22100122100122
0,197	3,66300366300365
0,1975	3,66300366300365
0,198	8,54700854700852
0,1985	3,66300366300365
0,199	8,54700854700852
0,1995	8,54700854700852
0,2	13,4310134310134
0,2005	13,4310134310134
0,201	13,4310134310134
0,2015	8,54700854700852
0,202	-1,22100122100122
0,2025	-10,989010989011
0,203	-10,989010989011
0,2035	-1,22100122100122
0,204	8,54700854700852
0,2045	18,3150183150183
0,205	23,1990231990231
0,2055	23,1990231990231
0,206	23,1990231990231
0,2065	23,1990231990231
0,207	23,1990231990231
0,2075	28,083028083028
0,208	37,8510378510377
0,2085	37,8510378510377
0,209	42,7350427350426
0,2095	28,083028083028
0,21	8,54700854700852
0,2105	-6,10500610500608
0,211	-10,989010989011
0,2115	-10,989010989011
0,212	-20,7570207570207
0,2125	-30,5250305250304
0,213	-52,5030525030523
0,2135	-72,0390720390718
0,214	-81,8070818070815
0,2145	-72,0390720390718
0,215	-45,177045177045
0,2155	-10,989010989011
0,216	23,1990231990231
0,2165	64,7130647130645
0,217	98,9010989010986
0,2175	118,437118437118
0,218	123,321123321123
0,2185	108,669108669108
0,219	79,3650793650791
0,2195	59,8290598290596
0,22	47,6190476190475
0,2205	42,7350427350426
0,221	37,8510378510377
0,2215	23,1990231990231
0,222	3,66300366300365
0,2225	-10,989010989011
0,223	-15,8730158730158
0,2235	-10,989010989011
0,224	-15,8730158730158
0,2245	-25,6410256410256
0,225	-20,7570207570207
0,2255	-40,2930402930402
0,226	-76,9230769230767
0,2265	-101,343101343101
0,227	-101,343101343101
0,2275	-86,6910866910864
0,228	-62,2710622710621
0,2285	-25,6410256410256
0,229	-6,10500610500608
0,2295	-6,10500610500608
0,23	-6,10500610500608
0,2305	-1,22100122100122
0,231	3,66300366300365
0,2315	23,1990231990231
0,232	64,7130647130645
0,2325	128,205128205129
0,233	184,371184371185
0,2335	155,067155067155
0,234	47,6190476190475
0,2345	-30,5250305250304
0,235	-62,2710622710621
0,2355	-57,3870573870572
0,236	-45,177045177045
0,2365	-25,6410256410256
0,237	-10,989010989011
0,2375	8,54700854700852
0,238	18,3150183150183
0,2385	18,3150183150183
0,239	18,3150183150183
0,2395	23,1990231990231
0,24	23,1990231990231
0,2405	23,1990231990231
0,241	23,1990231990231
0,2415	23,1990231990231
0,242	13,4310134310134
0,2425	3,66300366300365
0,243	-6,10500610500608
0,2435	-15,8730158730158
0,244	-25,6410256410256
0,2445	-20,7570207570207
0,245	-10,989010989011
0,2455	-6,10500610500608
0,246	-10,989010989011
0,2465	-20,7570207570207
0,247	-25,6410256410256
0,2475	-20,7570207570207
0,248	-15,8730158730158
0,2485	-10,989010989011
0,249	-10,989010989011
0,2495	3,66300366300365
0,25	13,4310134310134
0,2505	3,66300366300365
0,251	-10,989010989011
0,2515	-10,989010989011
0,252	-6,10500610500608
0,2525	32,9670329670329
0,253	79,3650793650791
0,2535	94,0170940170937
0,254	84,249084249084
0,2545	42,7350427350426
0,255	8,54700854700852
0,2555	3,66300366300365
0,256	18,3150183150183
0,2565	47,6190476190475
0,257	89,1330891330888
0,2575	103,785103785103
0,258	84,249084249084
0,2585	47,6190476190475
0,259	-10,989010989011
0,2595	-62,2710622710621
0,26	-91,5750915750913
0,2605	-96,4590964590961
0,261	-81,8070818070815
0,2615	-62,2710622710621
0,262	-40,2930402930402
0,2625	-30,5250305250304
0,263	-25,6410256410256
0,2635	-20,7570207570207
0,264	-6,10500610500608
0,2645	23,1990231990231
0,265	84,249084249084
0,2655	155,067155067155
0,266	208,791208791209
0,2665	189,255189255189
0,267	108,669108669108
0,2675	28,083028083028
0,268	-35,4090354090353
0,2685	-86,6910866910864
0,269	-111,111111111111
0,2695	-111,111111111111
0,27	-101,343101343101
0,2705	-81,8070818070815
0,271	-57,3870573870572
0,2715	-40,2930402930402
0,272	-30,5250305250304
0,2725	-15,8730158730158
0,273	-10,989010989011
0,2735	-6,10500610500608
0,274	3,66300366300365
0,2745	8,54700854700852
0,275	8,54700854700852
0,2755	13,4310134310134
0,276	3,66300366300365
0,2765	-10,989010989011
0,277	-30,5250305250304
0,2775	-40,2930402930402
0,278	-45,177045177045
0,2785	-52,5030525030523
0,279	-45,177045177045
0,2795	-30,5250305250304
0,28	-20,7570207570207
0,2805	-10,989010989011
0,281	3,66300366300365
0,2815	18,3150183150183
0,282	37,8510378510377
0,2825	54,9450549450548
0,283	59,8290598290596
0,2835	79,3650793650791
0,284	128,205128205129
0,2845	184,371184371185
0,285	233,211233211233
0,2855	242,979242979243
0,286	208,791208791209
0,2865	133,089133089133
0,287	59,8290598290596
0,2875	3,66300366300365
0,288	-25,6410256410256
0,2885	-52,5030525030523
0,289	-72,0390720390718
0,2895	-76,9230769230767
0,29	-62,2710622710621
0,2905	-45,177045177045
0,291	-30,5250305250304
0,2915	-20,7570207570207
0,292	-25,6410256410256
0,2925	-30,5250305250304
0,293	-30,5250305250304
0,2935	-25,6410256410256
0,294	-25,6410256410256
0,2945	-30,5250305250304
0,295	-52,5030525030523
0,2955	-76,9230769230767
0,296	-101,343101343101
0,2965	-120,87912087912
0,297	-130,647130647131
0,2975	-106,227106227106
0,298	-72,0390720390718
0,2985	-45,177045177045
0,299	-30,5250305250304
0,2995	-15,8730158730158
0,3	-10,989010989011
0,3005	-6,10500610500608
0,301	3,66300366300365
0,3015	13,4310134310134
0,302	23,1990231990231
0,3025	47,6190476190475
0,303	84,249084249084
0,3035	142,857142857143
0,304	208,791208791209
0,3045	203,907203907204
0,305	137,973137973138
0,3055	69,5970695970694
0,306	32,9670329670329
0,3065	18,3150183150183
0,307	3,66300366300365
0,3075	-35,4090354090353
0,308	-76,9230769230767
0,3085	-86,6910866910864
0,309	-76,9230769230767
0,3095	-72,0390720390718
0,31	-57,3870573870572
0,3105	-40,2930402930402
0,311	-25,6410256410256
0,3115	3,66300366300365
0,312	32,9670329670329
0,3125	59,8290598290596
0,313	74,4810744810742
0,3135	98,9010989010986
0,314	113,553113553113
0,3145	103,785103785103
0,315	84,249084249084
0,3155	47,6190476190475
0,316	18,3150183150183
0,3165	-6,10500610500608
0,317	-15,8730158730158
0,3175	-25,6410256410256
0,318	-35,4090354090353
0,3185	-30,5250305250304
0,319	-25,6410256410256
0,3195	-20,7570207570207
0,32	-15,8730158730158
0,3205	-1,22100122100122
0,321	8,54700854700852
0,3215	13,4310134310134
0,322	18,3150183150183
0,3225	18,3150183150183
0,323	13,4310134310134
0,3235	18,3150183150183
0,324	28,083028083028
0,3245	37,8510378510377
0,325	37,8510378510377
0,3255	42,7350427350426
0,326	28,083028083028
0,3265	-30,5250305250304
0,327	-96,4590964590961
0,3275	-135,531135531136
0,328	-157,509157509158
0,3285	-152,625152625153
0,329	-125,763125763126
0,3295	-101,343101343101
0,33	-72,0390720390718
0,3305	-35,4090354090353
0,331	-10,989010989011
0,3315	8,54700854700852
0,332	37,8510378510377
0,3325	69,5970695970694
0,333	108,669108669108
0,3335	155,067155067155
0,334	147,741147741148
0,3345	108,669108669108
0,335	64,7130647130645
0,3355	28,083028083028
0,336	18,3150183150183
0,3365	8,54700854700852
0,337	13,4310134310134
0,3375	18,3150183150183
0,338	28,083028083028
0,3385	42,7350427350426
0,339	74,4810744810742
0,3395	103,785103785103
0,34	94,0170940170937
0,3405	59,8290598290596
0,341	23,1990231990231
0,3415	-10,989010989011
0,342	-20,7570207570207
0,3425	-30,5250305250304
0,343	-35,4090354090353
0,3435	-40,2930402930402
0,344	-40,2930402930402
0,3445	-35,4090354090353
0,345	-30,5250305250304
0,3455	-25,6410256410256
0,346	-20,7570207570207
0,3465	-15,8730158730158
0,347	-1,22100122100122
0,3475	23,1990231990231
0,348	28,083028083028
0,3485	28,083028083028
0,349	23,1990231990231
0,3495	13,4310134310134
0,35	-1,22100122100122
0,3505	-10,989010989011
0,351	-15,8730158730158
0,3515	-40,2930402930402
0,352	-72,0390720390718
0,3525	-91,5750915750913
0,353	-86,6910866910864
0,3535	-62,2710622710621
0,354	-40,2930402930402
0,3545	-15,8730158730158
0,355	18,3150183150183
0,3555	42,7350427350426
0,356	47,6190476190475
0,3565	47,6190476190475
0,357	47,6190476190475
0,3575	54,9450549450548
0,358	54,9450549450548
0,3585	54,9450549450548
0,359	37,8510378510377
0,3595	18,3150183150183
0,36	-6,10500610500608
0,3605	-20,7570207570207
0,361	-30,5250305250304
0,3615	-25,6410256410256
0,362	-15,8730158730158
0,3625	-10,989010989011
0,363	-6,10500610500608
0,3635	-6,10500610500608
0,364	-1,22100122100122
0,3645	3,66300366300365
0,365	8,54700854700852
0,3655	18,3150183150183
0,366	23,1990231990231
0,3665	23,1990231990231
0,367	23,1990231990231
0,3675	23,1990231990231
0,368	28,083028083028
0,3685	28,083028083028
0,369	37,8510378510377
0,3695	59,8290598290596
0,37	59,8290598290596
0,3705	47,6190476190475
0,371	37,8510378510377
0,3715	23,1990231990231
0,372	-1,22100122100122
0,3725	-15,8730158730158
0,373	-40,2930402930402
0,3735	-72,0390720390718
0,374	-91,5750915750913
0,3745	-96,4590964590961
0,375	-72,0390720390718
0,3755	13,4310134310134
0,376	123,321123321123
0,3765	147,741147741148
0,377	89,1330891330888
0,3775	23,1990231990231
0,378	-10,989010989011
0,3785	-30,5250305250304
0,379	-45,177045177045
0,3795	-40,2930402930402
0,38	-30,5250305250304
0,3805	-20,7570207570207
0,381	-10,989010989011
0,3815	3,66300366300365
0,382	18,3150183150183
0,3825	23,1990231990231
0,383	32,9670329670329
0,3835	59,8290598290596
0,384	79,3650793650791
0,3845	89,1330891330888
0,385	79,3650793650791
0,3855	54,9450549450548
0,386	23,1990231990231
0,3865	-6,10500610500608
0,387	-10,989010989011
0,3875	-20,7570207570207
0,388	-20,7570207570207
0,3885	-20,7570207570207
0,389	-30,5250305250304
0,3895	-40,2930402930402
0,39	-52,5030525030523
0,3905	-52,5030525030523
0,391	-40,2930402930402
0,3915	-25,6410256410256
0,392	-15,8730158730158
0,3925	-20,7570207570207
0,393	-25,6410256410256
0,3935	-30,5250305250304
0,394	-20,7570207570207
0,3945	-10,989010989011
0,395	-6,10500610500608
0,3955	-1,22100122100122
0,396	-1,22100122100122
0,3965	-6,10500610500608
0,397	-1,22100122100122
0,3975	8,54700854700852
0,398	23,1990231990231
0,3985	23,1990231990231
0,399	23,1990231990231
0,3995	28,083028083028
0,4	37,8510378510377
0,4005	54,9450549450548
0,401	69,5970695970694
0,4015	89,1330891330888
0,402	94,0170940170937
0,4025	79,3650793650791
0,403	47,6190476190475
0,4035	13,4310134310134
0,404	-6,10500610500608
0,4045	-10,989010989011
0,405	-10,989010989011
0,4055	-10,989010989011
0,406	-20,7570207570207
0,4065	-35,4090354090353
0,407	-35,4090354090353
0,4075	-30,5250305250304
0,408	-20,7570207570207
0,4085	-30,5250305250304
0,409	-35,4090354090353
0,4095	-35,4090354090353
0,41	-35,4090354090353
0,4105	-30,5250305250304
0,411	-52,5030525030523
0,4115	-62,2710622710621
0,412	-57,3870573870572
0,4125	-30,5250305250304
0,413	3,66300366300365
0,4135	42,7350427350426
0,414	47,6190476190475
0,4145	37,8510378510377
0,415	3,66300366300365
0,4155	3,66300366300365
0,416	23,1990231990231
0,4165	37,8510378510377
0,417	47,6190476190475
0,4175	84,249084249084
0,418	147,741147741148
0,4185	189,255189255189
0,419	169,71916971917
0,4195	108,669108669108
0,42	47,6190476190475
0,4205	-10,989010989011
0,421	-62,2710622710621
0,4215	-62,2710622710621
0,422	-20,7570207570207
0,4225	3,66300366300365
0,423	8,54700854700852
0,4235	13,4310134310134
0,424	8,54700854700852
0,4245	3,66300366300365
0,425	-10,989010989011
0,4255	-20,7570207570207
0,426	-30,5250305250304
0,4265	-25,6410256410256
0,427	-15,8730158730158
0,4275	-10,989010989011
0,428	-10,989010989011
0,4285	-15,8730158730158
0,429	-15,8730158730158
0,4295	-20,7570207570207
0,43	-20,7570207570207
0,4305	-20,7570207570207
0,431	-15,8730158730158
0,4315	-10,989010989011
0,432	-10,989010989011
0,4325	-10,989010989011
0,433	-10,989010989011
0,4335	-25,6410256410256
0,434	-40,2930402930402
0,4345	-40,2930402930402
0,435	-30,5250305250304
0,4355	-20,7570207570207
0,436	-15,8730158730158
0,4365	-10,989010989011
0,437	-10,989010989011
0,4375	-6,10500610500608
0,438	3,66300366300365
0,4385	3,66300366300365
0,439	18,3150183150183
0,4395	42,7350427350426
0,44	84,249084249084
0,4405	137,973137973138
0,441	164,835164835165
0,4415	118,437118437118
0,442	37,8510378510377
0,4425	-15,8730158730158
0,443	-30,5250305250304
0,4435	-25,6410256410256
0,444	-30,5250305250304
0,4445	-40,2930402930402
0,445	-52,5030525030523
0,4455	-45,177045177045
0,446	-35,4090354090353
0,4465	-15,8730158730158
0,447	18,3150183150183
0,4475	37,8510378510377
0,448	28,083028083028
0,4485	3,66300366300365
0,449	-25,6410256410256
0,4495	-35,4090354090353
0,45	-35,4090354090353
0,4505	-30,5250305250304
0,451	-25,6410256410256
0,4515	-25,6410256410256
0,452	-25,6410256410256
0,4525	-25,6410256410256
0,453	-10,989010989011
0,4535	13,4310134310134
0,454	47,6190476190475
0,4545	69,5970695970694
0,455	74,4810744810742
0,4555	79,3650793650791
0,456	79,3650793650791
0,4565	69,5970695970694
0,457	59,8290598290596
0,4575	47,6190476190475
0,458	28,083028083028
0,4585	23,1990231990231
0,459	23,1990231990231
0,4595	23,1990231990231
0,46	32,9670329670329
0,4605	32,9670329670329
0,461	28,083028083028
0,4615	23,1990231990231
0,462	23,1990231990231
0,4625	18,3150183150183
0,463	8,54700854700852
0,4635	-1,22100122100122
0,464	-20,7570207570207
0,4645	-52,5030525030523
0,465	-96,4590964590961
0,4655	-120,87912087912
0,466	-120,87912087912
0,4665	-115,995115995116
0,467	-101,343101343101
0,4675	-76,9230769230767
0,468	-52,5030525030523
0,4685	-30,5250305250304
0,469	-10,989010989011
0,4695	-6,10500610500608
0,47	-1,22100122100122
0,4705	3,66300366300365
0,471	13,4310134310134
0,4715	32,9670329670329
0,472	37,8510378510377
0,4725	42,7350427350426
0,473	37,8510378510377
0,4735	37,8510378510377
0,474	47,6190476190475
0,4745	74,4810744810742
0,475	108,669108669108
0,4755	118,437118437118
0,476	94,0170940170937
0,4765	64,7130647130645
0,477	42,7350427350426
0,4775	23,1990231990231
0,478	8,54700854700852
0,4785	-20,7570207570207
0,479	-40,2930402930402
0,4795	-52,5030525030523
0,48	-62,2710622710621
0,4805	-76,9230769230767
0,481	-72,0390720390718
0,4815	-67,1550671550669
0,482	-45,177045177045
0,4825	-30,5250305250304
0,483	-15,8730158730158
0,4835	8,54700854700852
0,484	47,6190476190475
0,4845	89,1330891330888
0,485	147,741147741148
0,4855	194,139194139194
0,486	194,139194139194
0,4865	142,857142857143
0,487	79,3650793650791
0,4875	28,083028083028
0,488	-10,989010989011
0,4885	-30,5250305250304
0,489	-40,2930402930402
0,4895	-40,2930402930402
0,49	-45,177045177045
0,4905	-52,5030525030523
0,491	-62,2710622710621
0,4915	-57,3870573870572
0,492	-57,3870573870572
0,4925	-57,3870573870572
0,493	-52,5030525030523
0,4935	-40,2930402930402
0,494	-10,989010989011
0,4945	3,66300366300365
0,495	-1,22100122100122
0,4955	-6,10500610500608
0,496	-1,22100122100122
0,4965	18,3150183150183
0,497	54,9450549450548
0,4975	84,249084249084
0,498	84,249084249084
0,4985	47,6190476190475
0,499	-6,10500610500608
0,4995	-25,6410256410256
0,5	-25,6410256410256
0,5005	-10,989010989011
0,501	18,3150183150183
0,5015	32,9670329670329
0,502	28,083028083028
0,5025	18,3150183150183
0,503	3,66300366300365
0,5035	-6,10500610500608
0,504	-1,22100122100122
0,5045	3,66300366300365
0,505	-1,22100122100122
0,5055	-10,989010989011
0,506	-30,5250305250304
0,5065	-52,5030525030523
0,507	-62,2710622710621
0,5075	-57,3870573870572
0,508	-35,4090354090353
0,5085	-20,7570207570207
0,509	-10,989010989011
0,5095	-10,989010989011
0,51	-15,8730158730158
0,5105	-10,989010989011
0,511	-6,10500610500608
0,5115	-1,22100122100122
0,512	3,66300366300365
0,5125	18,3150183150183
0,513	28,083028083028
0,5135	47,6190476190475
0,514	64,7130647130645
0,5145	69,5970695970694
0,515	74,4810744810742
0,5155	74,4810744810742
0,516	64,7130647130645
0,5165	42,7350427350426
0,517	23,1990231990231
0,5175	8,54700854700852
0,518	-1,22100122100122
0,5185	-6,10500610500608
0,519	-6,10500610500608
0,5195	-6,10500610500608
0,52	3,66300366300365
0,5205	3,66300366300365
0,521	3,66300366300365
0,5215	3,66300366300365
0,522	-1,22100122100122
0,5225	-1,22100122100122
0,523	3,66300366300365
0,5235	-1,22100122100122
0,524	-6,10500610500608
0,5245	-1,22100122100122
0,525	-1,22100122100122
0,5255	-20,7570207570207
0,526	-30,5250305250304
0,5265	-25,6410256410256
0,527	-10,989010989011
0,5275	-6,10500610500608
0,528	3,66300366300365
0,5285	18,3150183150183
0,529	13,4310134310134
0,5295	-6,10500610500608
0,53	-10,989010989011
0,5305	-10,989010989011
0,531	-10,989010989011
0,5315	-20,7570207570207
0,532	-35,4090354090353
0,5325	-57,3870573870572
0,533	-72,0390720390718
0,5335	-67,1550671550669
0,534	-30,5250305250304
0,5345	-1,22100122100122
0,535	23,1990231990231
0,5355	54,9450549450548
0,536	108,669108669108
0,5365	169,71916971917
0,537	174,603174603175
0,5375	128,205128205129
0,538	98,9010989010986
0,5385	89,1330891330888
0,539	74,4810744810742
0,5395	8,54700854700852
0,54	-52,5030525030523
0,5405	-81,8070818070815
0,541	-91,5750915750913
0,5415	-86,6910866910864
0,542	-76,9230769230767
0,5425	-57,3870573870572
0,543	-40,2930402930402
0,5435	-20,7570207570207
0,544	-6,10500610500608
0,5445	23,1990231990231
0,545	47,6190476190475
0,5455	47,6190476190475
0,546	32,9670329670329
0,5465	18,3150183150183
0,547	3,66300366300365
0,5475	3,66300366300365
0,548	3,66300366300365
0,5485	8,54700854700852
0,549	18,3150183150183
0,5495	23,1990231990231
0,55	18,3150183150183
0,5505	18,3150183150183
0,551	18,3150183150183
0,5515	23,1990231990231
0,552	23,1990231990231
0,5525	18,3150183150183
0,553	8,54700854700852
0,5535	3,66300366300365
0,554	-10,989010989011
0,5545	-30,5250305250304
0,555	-52,5030525030523
0,5555	-62,2710622710621
0,556	-67,1550671550669
0,5565	-62,2710622710621
0,557	-52,5030525030523
0,5575	-35,4090354090353
0,558	-20,7570207570207
0,5585	-20,7570207570207
0,559	-25,6410256410256
0,5595	-20,7570207570207
0,56	3,66300366300365
0,5605	47,6190476190475
0,561	103,785103785103
0,5615	123,321123321123
0,562	113,553113553113
0,5625	103,785103785103
0,563	89,1330891330888
0,5635	69,5970695970694
0,564	42,7350427350426
0,5645	23,1990231990231
0,565	18,3150183150183
0,5655	23,1990231990231
0,566	42,7350427350426
0,5665	47,6190476190475
0,567	37,8510378510377
0,5675	18,3150183150183
0,568	3,66300366300365
0,5685	3,66300366300365
0,569	-1,22100122100122
0,5695	-6,10500610500608
0,57	-1,22100122100122
0,5705	-10,989010989011
0,571	-10,989010989011
0,5715	-10,989010989011
0,572	-20,7570207570207
0,5725	-45,177045177045
0,573	-72,0390720390718
0,5735	-91,5750915750913
0,574	-86,6910866910864
0,5745	-76,9230769230767
0,575	-72,0390720390718
0,5755	-76,9230769230767
0,576	-72,0390720390718
0,5765	-67,1550671550669
0,577	-57,3870573870572
0,5775	-35,4090354090353
0,578	-15,8730158730158
0,5785	8,54700854700852
0,579	8,54700854700852
0,5795	-1,22100122100122
0,58	3,66300366300365
0,5805	3,66300366300365
0,581	-6,10500610500608
0,5815	3,66300366300365
0,582	18,3150183150183
0,5825	32,9670329670329
0,583	32,9670329670329
0,5835	28,083028083028
0,584	37,8510378510377
0,5845	54,9450549450548
0,585	69,5970695970694
0,5855	84,249084249084
0,586	84,249084249084
0,5865	64,7130647130645
0,587	59,8290598290596
0,5875	69,5970695970694
0,588	84,249084249084
0,5885	84,249084249084
0,589	64,7130647130645
0,5895	23,1990231990231
0,59	3,66300366300365
0,5905	-6,10500610500608
0,591	-6,10500610500608
0,5915	-6,10500610500608
0,592	-10,989010989011
0,5925	-20,7570207570207
0,593	-20,7570207570207
0,5935	-10,989010989011
0,594	8,54700854700852
0,5945	23,1990231990231
0,595	32,9670329670329
0,5955	28,083028083028
0,596	3,66300366300365
0,5965	-25,6410256410256
0,597	-45,177045177045
0,5975	-57,3870573870572
0,598	-76,9230769230767
0,5985	-101,343101343101
0,599	-111,111111111111
0,5995	-120,87912087912
0,6	-120,87912087912
0,6005	-115,995115995116
0,601	-96,4590964590961
0,6015	-57,3870573870572
0,602	-10,989010989011
0,6025	47,6190476190475
0,603	113,553113553113
0,6035	208,791208791209
0,604	255,189255189255
0,6045	203,907203907204
0,605	108,669108669108
0,6055	32,9670329670329
0,606	-1,22100122100122
0,6065	-6,10500610500608
0,607	-10,989010989011
0,6075	-25,6410256410256
0,608	-30,5250305250304
0,6085	-10,989010989011
0,609	13,4310134310134
0,6095	23,1990231990231
0,61	13,4310134310134
0,6105	-6,10500610500608
0,611	-20,7570207570207
0,6115	-25,6410256410256
0,612	-6,10500610500608
0,6125	18,3150183150183
0,613	18,3150183150183
0,6135	13,4310134310134
0,614	-10,989010989011
0,6145	-52,5030525030523
0,615	-52,5030525030523
0,6155	-20,7570207570207
0,616	18,3150183150183
0,6165	54,9450549450548
0,617	59,8290598290596
0,6175	42,7350427350426
0,618	37,8510378510377
0,6185	18,3150183150183
0,619	-10,989010989011
0,6195	-30,5250305250304
0,62	-20,7570207570207
0,6205	-10,989010989011
0,621	-10,989010989011
0,6215	8,54700854700852
0,622	23,1990231990231
0,6225	28,083028083028
0,623	23,1990231990231
0,6235	18,3150183150183
0,624	3,66300366300365
0,6245	-10,989010989011
0,625	-6,10500610500608
0,6255	28,083028083028
0,626	79,3650793650791
0,6265	94,0170940170937
0,627	89,1330891330888
0,6275	69,5970695970694
0,628	42,7350427350426
0,6285	18,3150183150183
0,629	-6,10500610500608
0,6295	-20,7570207570207
0,63	-30,5250305250304
0,6305	-30,5250305250304
0,631	-25,6410256410256
0,6315	-20,7570207570207
0,632	-30,5250305250304
0,6325	-30,5250305250304
0,633	-35,4090354090353
0,6335	-40,2930402930402
0,634	-52,5030525030523
0,6345	-45,177045177045
0,635	-45,177045177045
0,6355	-40,2930402930402
0,636	-30,5250305250304
0,6365	-15,8730158730158
0,637	-10,989010989011
0,6375	8,54700854700852
0,638	28,083028083028
0,6385	32,9670329670329
0,639	32,9670329670329
0,6395	23,1990231990231
0,64	28,083028083028
0,6405	28,083028083028
0,641	23,1990231990231
0,6415	18,3150183150183
0,642	-1,22100122100122
0,6425	-30,5250305250304
0,643	-67,1550671550669
0,6435	-81,8070818070815
0,644	-76,9230769230767
0,6445	-62,2710622710621
0,645	-40,2930402930402
0,6455	-30,5250305250304
0,646	-20,7570207570207
0,6465	-10,989010989011
0,647	-1,22100122100122
0,6475	13,4310134310134
0,648	23,1990231990231
0,6485	28,083028083028
0,649	32,9670329670329
0,6495	37,8510378510377
0,65	47,6190476190475
0,6505	59,8290598290596
0,651	69,5970695970694
0,6515	64,7130647130645
0,652	59,8290598290596
0,6525	69,5970695970694
0,653	79,3650793650791
0,6535	74,4810744810742
0,654	64,7130647130645
0,6545	59,8290598290596
0,655	42,7350427350426
0,6555	23,1990231990231
0,656	8,54700854700852
0,6565	-6,10500610500608
0,657	-10,989010989011
0,6575	-15,8730158730158
0,658	-25,6410256410256
0,6585	-30,5250305250304
0,659	-25,6410256410256
0,6595	-10,989010989011
0,66	28,083028083028
0,6605	64,7130647130645
0,661	74,4810744810742
0,6615	64,7130647130645
0,662	32,9670329670329
0,6625	3,66300366300365
0,663	-6,10500610500608
0,6635	-10,989010989011
0,664	-10,989010989011
0,6645	-15,8730158730158
0,665	-20,7570207570207
0,6655	-30,5250305250304
0,666	-25,6410256410256
0,6665	-20,7570207570207
0,667	-10,989010989011
0,6675	-10,989010989011
0,668	-10,989010989011
0,6685	-10,989010989011
0,669	-10,989010989011
0,6695	-10,989010989011
0,67	-10,989010989011
0,6705	-10,989010989011
0,671	-10,989010989011
0,6715	-10,989010989011
0,672	-6,10500610500608
0,6725	-1,22100122100122
0,673	8,54700854700852
0,6735	13,4310134310134
0,674	13,4310134310134
0,6745	18,3150183150183
0,675	13,4310134310134
0,6755	13,4310134310134
0,676	23,1990231990231
0,6765	28,083028083028
0,677	18,3150183150183
0,6775	-1,22100122100122
0,678	-15,8730158730158
0,6785	-20,7570207570207
0,679	-25,6410256410256
0,6795	-20,7570207570207
0,68	-25,6410256410256
0,6805	-30,5250305250304
0,681	-45,177045177045
0,6815	-62,2710622710621
0,682	-72,0390720390718
0,6825	-52,5030525030523
0,683	3,66300366300365
0,6835	54,9450549450548
0,684	94,0170940170937
0,6845	108,669108669108
0,685	84,249084249084
0,6855	37,8510378510377
0,686	3,66300366300365
0,6865	-20,7570207570207
0,687	-35,4090354090353
0,6875	-25,6410256410256
0,688	3,66300366300365
0,6885	64,7130647130645
0,689	113,553113553113
0,6895	113,553113553113
0,69	74,4810744810742
0,6905	18,3150183150183
0,691	-15,8730158730158
0,6915	-52,5030525030523
0,692	-81,8070818070815
0,6925	-96,4590964590961
0,693	-111,111111111111
0,6935	-130,647130647131
0,694	-125,763125763126
0,6945	-76,9230769230767
0,695	-15,8730158730158
0,6955	32,9670329670329
0,696	89,1330891330888
0,6965	147,741147741148
0,697	199,023199023199
0,6975	208,791208791209
0,698	159,95115995116
0,6985	128,205128205129
0,699	113,553113553113
0,6995	84,249084249084
0,7	28,083028083028
0,7005	-10,989010989011
0,701	-30,5250305250304
0,7015	-40,2930402930402
0,702	-52,5030525030523
0,7025	-52,5030525030523
0,703	-35,4090354090353
0,7035	-10,989010989011
0,704	8,54700854700852
0,7045	13,4310134310134
0,705	8,54700854700852
0,7055	8,54700854700852
0,706	18,3150183150183
0,7065	13,4310134310134
0,707	-1,22100122100122
0,7075	-20,7570207570207
0,708	-67,1550671550669
0,7085	-111,111111111111
0,709	-130,647130647131
0,7095	-111,111111111111
0,71	-81,8070818070815
0,7105	-67,1550671550669
0,711	-45,177045177045
0,7115	-15,8730158730158
0,712	-1,22100122100122
0,7125	8,54700854700852
0,713	18,3150183150183
0,7135	18,3150183150183
0,714	23,1990231990231
0,7145	18,3150183150183
0,715	8,54700854700852
0,7155	8,54700854700852
0,716	18,3150183150183
0,7165	23,1990231990231
0,717	32,9670329670329
0,7175	32,9670329670329
0,718	32,9670329670329
0,7185	23,1990231990231
0,719	18,3150183150183
0,7195	8,54700854700852
0,72	13,4310134310134
0,7205	18,3150183150183
0,721	18,3150183150183
0,7215	23,1990231990231
0,722	28,083028083028
0,7225	23,1990231990231
0,723	8,54700854700852
0,7235	-1,22100122100122
0,724	-6,10500610500608
0,7245	-6,10500610500608
0,725	-6,10500610500608
0,7255	-6,10500610500608
0,726	-10,989010989011
0,7265	-10,989010989011
0,727	-6,10500610500608
0,7275	-6,10500610500608
0,728	-6,10500610500608
0,7285	-10,989010989011
0,729	-15,8730158730158
0,7295	-10,989010989011
0,73	-1,22100122100122
0,7305	13,4310134310134
0,731	23,1990231990231
0,7315	37,8510378510377
0,732	54,9450549450548
0,7325	54,9450549450548
0,733	47,6190476190475
0,7335	47,6190476190475
0,734	32,9670329670329
0,7345	28,083028083028
0,735	28,083028083028
0,7355	47,6190476190475
0,736	69,5970695970694
0,7365	84,249084249084
0,737	79,3650793650791
0,7375	54,9450549450548
0,738	18,3150183150183
0,7385	-6,10500610500608
0,739	-15,8730158730158
0,7395	-20,7570207570207
0,74	-20,7570207570207
0,7405	-20,7570207570207
0,741	-20,7570207570207
0,7415	-20,7570207570207
0,742	-20,7570207570207
0,7425	-20,7570207570207
0,743	-25,6410256410256
0,7435	-30,5250305250304
0,744	-30,5250305250304
0,7445	-30,5250305250304
0,745	-20,7570207570207
0,7455	-15,8730158730158
0,746	-10,989010989011
0,7465	-6,10500610500608
0,747	-6,10500610500608
0,7475	-6,10500610500608
0,748	-10,989010989011
0,7485	-10,989010989011
0,749	-10,989010989011
0,7495	-10,989010989011
0,75	-6,10500610500608
0,7505	-1,22100122100122
0,751	-6,10500610500608
0,7515	-6,10500610500608
0,752	-10,989010989011
0,7525	-6,10500610500608
0,753	-1,22100122100122
0,7535	8,54700854700852
0,754	8,54700854700852
0,7545	13,4310134310134
0,755	18,3150183150183
0,7555	18,3150183150183
0,756	18,3150183150183
0,7565	23,1990231990231
0,757	23,1990231990231
0,7575	13,4310134310134
0,758	8,54700854700852
0,7585	3,66300366300365
0,759	-6,10500610500608
0,7595	-20,7570207570207
0,76	-30,5250305250304
0,7605	-35,4090354090353
0,761	-30,5250305250304
0,7615	-35,4090354090353
0,762	-35,4090354090353
0,7625	-30,5250305250304
0,763	-20,7570207570207
0,7635	-25,6410256410256
0,764	-45,177045177045
0,7645	-52,5030525030523
0,765	-10,989010989011
0,7655	69,5970695970694
0,766	137,973137973138
0,7665	147,741147741148
0,767	113,553113553113
0,7675	84,249084249084
0,768	84,249084249084
0,7685	98,9010989010986
0,769	98,9010989010986
0,7695	59,8290598290596
0,77	3,66300366300365
0,7705	-25,6410256410256
0,771	-40,2930402930402
0,7715	-45,177045177045
0,772	-40,2930402930402
0,7725	-45,177045177045
0,773	-45,177045177045
0,7735	-45,177045177045
0,774	-45,177045177045
0,7745	-30,5250305250304
0,775	-15,8730158730158
0,7755	8,54700854700852
0,776	59,8290598290596
0,7765	89,1330891330888
0,777	98,9010989010986
0,7775	84,249084249084
0,778	59,8290598290596
0,7785	28,083028083028
0,779	8,54700854700852
0,7795	-1,22100122100122
0,78	-10,989010989011
0,7805	-20,7570207570207
0,781	-25,6410256410256
0,7815	-20,7570207570207
0,782	-10,989010989011
0,7825	-10,989010989011
0,783	-10,989010989011
0,7835	-10,989010989011
0,784	-10,989010989011
0,7845	-10,989010989011
0,785	-10,989010989011
0,7855	-10,989010989011
0,786	-10,989010989011
0,7865	-10,989010989011
0,787	-10,989010989011
0,7875	-15,8730158730158
0,788	-15,8730158730158
0,7885	-15,8730158730158
0,789	-6,10500610500608
0,7895	23,1990231990231
0,79	37,8510378510377
0,7905	28,083028083028
0,791	3,66300366300365
0,7915	-30,5250305250304
0,792	-62,2710622710621
0,7925	-72,0390720390718
0,793	-62,2710622710621
0,7935	-30,5250305250304
0,794	28,083028083028
0,7945	74,4810744810742
0,795	64,7130647130645
0,7955	28,083028083028
0,796	8,54700854700852
0,7965	8,54700854700852
0,797	32,9670329670329
0,7975	84,249084249084
0,798	147,741147741148
0,7985	189,255189255189
0,799	164,835164835165
0,7995	74,4810744810742
0,8	-20,7570207570207
0,8005	-81,8070818070815
0,801	-91,5750915750913
0,8015	-91,5750915750913
0,802	-67,1550671550669
0,8025	-52,5030525030523
0,803	-35,4090354090353
0,8035	-40,2930402930402
0,804	-40,2930402930402
0,8045	-40,2930402930402
0,805	-30,5250305250304
0,8055	-20,7570207570207
0,806	-10,989010989011
0,8065	-6,10500610500608
0,807	3,66300366300365
0,8075	3,66300366300365
0,808	-10,989010989011
0,8085	-1,22100122100122
0,809	8,54700854700852
0,8095	18,3150183150183
0,81	32,9670329670329
0,8105	47,6190476190475
0,811	54,9450549450548
0,8115	42,7350427350426
0,812	42,7350427350426
0,8125	42,7350427350426
0,813	37,8510378510377
0,8135	32,9670329670329
0,814	28,083028083028
0,8145	23,1990231990231
0,815	23,1990231990231
0,8155	3,66300366300365
0,816	-10,989010989011
0,8165	-15,8730158730158
0,817	-25,6410256410256
0,8175	-20,7570207570207
0,818	-20,7570207570207
0,8185	-15,8730158730158
0,819	-6,10500610500608
0,8195	-1,22100122100122
0,82	-6,10500610500608
0,8205	-6,10500610500608
0,821	-1,22100122100122
0,8215	3,66300366300365
0,822	8,54700854700852
0,8225	3,66300366300365
0,823	8,54700854700852
0,8235	3,66300366300365
0,824	3,66300366300365
0,8245	3,66300366300365
0,825	3,66300366300365
0,8255	3,66300366300365
0,826	8,54700854700852
0,8265	8,54700854700852
0,827	-1,22100122100122
0,8275	-6,10500610500608
0,828	3,66300366300365
0,8285	8,54700854700852
0,829	13,4310134310134
0,8295	23,1990231990231
0,83	28,083028083028
0,8305	18,3150183150183
0,831	3,66300366300365
0,8315	-6,10500610500608
0,832	-10,989010989011
0,8325	-20,7570207570207
0,833	-10,989010989011
0,8335	-1,22100122100122
0,834	-6,10500610500608
0,8345	-6,10500610500608
0,835	8,54700854700852
0,8355	28,083028083028
0,836	37,8510378510377
0,8365	47,6190476190475
0,837	54,9450549450548
0,8375	32,9670329670329
0,838	13,4310134310134
0,8385	3,66300366300365
0,839	-6,10500610500608
0,8395	-10,989010989011
0,84	-15,8730158730158
0,8405	-15,8730158730158
0,841	-10,989010989011
0,8415	-10,989010989011
0,842	-25,6410256410256
0,8425	-40,2930402930402
0,843	-30,5250305250304
0,8435	-10,989010989011
0,844	3,66300366300365
0,8445	13,4310134310134
0,845	23,1990231990231
0,8455	37,8510378510377
0,846	37,8510378510377
0,8465	28,083028083028
0,847	18,3150183150183
0,8475	8,54700854700852
0,848	3,66300366300365
0,8485	3,66300366300365
0,849	3,66300366300365
0,8495	3,66300366300365
0,85	3,66300366300365
0,8505	-1,22100122100122
0,851	-1,22100122100122
0,8515	3,66300366300365
0,852	3,66300366300365
0,8525	3,66300366300365
0,853	-1,22100122100122
0,8535	-6,10500610500608
0,854	-10,989010989011
0,8545	-10,989010989011
0,855	-30,5250305250304
0,8555	-40,2930402930402
0,856	-40,2930402930402
0,8565	-20,7570207570207
0,857	-10,989010989011
0,8575	-1,22100122100122
0,858	-6,10500610500608
0,8585	-6,10500610500608
0,859	3,66300366300365
0,8595	13,4310134310134
0,86	28,083028083028
0,8605	42,7350427350426
0,861	59,8290598290596
0,8615	69,5970695970694
0,862	94,0170940170937
0,8625	118,437118437118
0,863	123,321123321123
0,8635	98,9010989010986
0,864	59,8290598290596
0,8645	13,4310134310134
0,865	-10,989010989011
0,8655	-15,8730158730158
0,866	-10,989010989011
0,8665	-10,989010989011
0,867	-1,22100122100122
0,8675	-1,22100122100122
0,868	-10,989010989011
0,8685	-15,8730158730158
0,869	-20,7570207570207
0,8695	-20,7570207570207
0,87	-20,7570207570207
0,8705	-20,7570207570207
0,871	-25,6410256410256
0,8715	-25,6410256410256
0,872	-20,7570207570207
0,8725	-15,8730158730158
0,873	-10,989010989011
0,8735	-10,989010989011
0,874	-10,989010989011
0,8745	-10,989010989011
0,875	-10,989010989011
0,8755	-10,989010989011
0,876	-10,989010989011
0,8765	-10,989010989011
0,877	-15,8730158730158
0,8775	-20,7570207570207
0,878	-20,7570207570207
0,8785	-10,989010989011
0,879	-6,10500610500608
0,8795	8,54700854700852
0,88	13,4310134310134
0,8805	8,54700854700852
0,881	-1,22100122100122
0,8815	3,66300366300365
0,882	3,66300366300365
0,8825	-6,10500610500608
0,883	-15,8730158730158
0,8835	-25,6410256410256
0,884	-30,5250305250304
0,8845	-40,2930402930402
0,885	-40,2930402930402
0,8855	-40,2930402930402
0,886	-40,2930402930402
0,8865	-15,8730158730158
0,887	28,083028083028
0,8875	108,669108669108
0,888	179,48717948718
0,8885	174,603174603175
0,889	128,205128205129
0,8895	94,0170940170937
0,89	94,0170940170937
0,8905	118,437118437118
0,891	142,857142857143
0,8915	128,205128205129
0,892	89,1330891330888
0,8925	23,1990231990231
0,893	-30,5250305250304
0,8935	-72,0390720390718
0,894	-96,4590964590961
0,8945	-101,343101343101
0,895	-81,8070818070815
0,8955	-52,5030525030523
0,896	-25,6410256410256
0,8965	-30,5250305250304
0,897	-52,5030525030523
0,8975	-62,2710622710621
0,898	-72,0390720390718
0,8985	-81,8070818070815
0,899	-81,8070818070815
0,8995	-76,9230769230767
0,9	-76,9230769230767
0,9005	-67,1550671550669
0,901	-40,2930402930402
0,9015	-10,989010989011
0,902	28,083028083028
0,9025	47,6190476190475
0,903	59,8290598290596
0,9035	98,9010989010986
0,904	142,857142857143
0,9045	128,205128205129
0,905	98,9010989010986
0,9055	59,8290598290596
0,906	28,083028083028
0,9065	-10,989010989011
0,907	-40,2930402930402
0,9075	-40,2930402930402
0,908	-10,989010989011
0,9085	37,8510378510377
0,909	108,669108669108
0,9095	159,95115995116
0,91	142,857142857143
0,9105	98,9010989010986
0,911	37,8510378510377
0,9115	-6,10500610500608
0,912	-30,5250305250304
0,9125	-35,4090354090353
0,913	-45,177045177045
0,9135	-57,3870573870572
0,914	-72,0390720390718
0,9145	-76,9230769230767
0,915	-76,9230769230767
0,9155	-72,0390720390718
0,916	-57,3870573870572
0,9165	-45,177045177045
0,917	-35,4090354090353
0,9175	-30,5250305250304
0,918	-20,7570207570207
0,9185	-1,22100122100122
0,919	8,54700854700852
0,9195	8,54700854700852
0,92	8,54700854700852
0,9205	8,54700854700852
0,921	8,54700854700852
0,9215	-1,22100122100122
0,922	-6,10500610500608
0,9225	-10,989010989011
0,923	-15,8730158730158
0,9235	-20,7570207570207
0,924	-25,6410256410256
0,9245	-10,989010989011
0,925	8,54700854700852
0,9255	42,7350427350426
0,926	64,7130647130645
0,9265	64,7130647130645
0,927	47,6190476190475
0,9275	32,9670329670329
0,928	13,4310134310134
0,9285	3,66300366300365
0,929	-1,22100122100122
0,9295	-1,22100122100122
0,93	8,54700854700852
0,9305	3,66300366300365
0,931	-6,10500610500608
0,9315	-10,989010989011
0,932	-10,989010989011
0,9325	-10,989010989011
0,933	-10,989010989011
0,9335	-10,989010989011
0,934	-1,22100122100122
0,9345	3,66300366300365
0,935	8,54700854700852
0,9355	13,4310134310134
0,936	23,1990231990231
0,9365	37,8510378510377
0,937	42,7350427350426
0,9375	32,9670329670329
0,938	32,9670329670329
0,9385	32,9670329670329
0,939	28,083028083028
0,9395	23,1990231990231
0,94	13,4310134310134
0,9405	8,54700854700852
0,941	18,3150183150183
0,9415	23,1990231990231
0,942	-10,989010989011
0,9425	-40,2930402930402
0,943	-52,5030525030523
0,9435	-62,2710622710621
0,944	-81,8070818070815
0,9445	-86,6910866910864
0,945	-81,8070818070815
0,9455	-72,0390720390718
0,946	-67,1550671550669
0,9465	-45,177045177045
0,947	-10,989010989011
0,9475	18,3150183150183
0,948	74,4810744810742
0,9485	174,603174603175
0,949	279,60927960928
0,9495	333,333333333333
0,95	294,261294261294
0,9505	233,211233211233
0,951	199,023199023199
0,9515	184,371184371185
0,952	137,973137973138
0,9525	28,083028083028
0,953	-101,343101343101
0,9535	-225,885225885226
0,954	-291,819291819292
0,9545	-296,703296703297
0,955	-262,515262515262
0,9555	-216,117216117216
0,956	-172,161172161172
0,9565	-130,647130647131
0,957	-101,343101343101
0,9575	-52,5030525030523
0,958	-1,22100122100122
0,9585	47,6190476190475
0,959	89,1330891330888
0,9595	137,973137973138
0,96	164,835164835165
0,9605	159,95115995116
0,961	113,553113553113
0,9615	64,7130647130645
0,962	23,1990231990231
0,9625	13,4310134310134
0,963	23,1990231990231
0,9635	32,9670329670329
0,964	32,9670329670329
0,9645	32,9670329670329
0,965	13,4310134310134
0,9655	-15,8730158730158
0,966	-45,177045177045
0,9665	-76,9230769230767
0,967	-91,5750915750913
0,9675	-101,343101343101
0,968	-111,111111111111
0,9685	-106,227106227106
0,969	-86,6910866910864
0,9695	-45,177045177045
0,97	-10,989010989011
0,9705	18,3150183150183
0,971	32,9670329670329
0,9715	32,9670329670329
0,972	18,3150183150183
0,9725	23,1990231990231
0,973	47,6190476190475
0,9735	89,1330891330888
0,974	137,973137973138
0,9745	189,255189255189
0,975	233,211233211233
0,9755	213,675213675214
0,976	137,973137973138
0,9765	59,8290598290596
0,977	3,66300366300365
0,9775	-20,7570207570207
0,978	-30,5250305250304
0,9785	-45,177045177045
0,979	-52,5030525030523
0,9795	-52,5030525030523
0,98	-45,177045177045
0,9805	-45,177045177045
0,981	-72,0390720390718
0,9815	-91,5750915750913
0,982	-96,4590964590961
0,9825	-101,343101343101
0,983	-91,5750915750913
0,9835	-76,9230769230767
0,984	-67,1550671550669
0,9845	-57,3870573870572
0,985	-45,177045177045
0,9855	-30,5250305250304
0,986	-10,989010989011
0,9865	18,3150183150183
0,987	47,6190476190475
0,9875	94,0170940170937
0,988	137,973137973138
0,9885	147,741147741148
0,989	108,669108669108
0,9895	64,7130647130645
0,99	18,3150183150183
0,9905	-6,10500610500608
0,991	-20,7570207570207
0,9915	-30,5250305250304
0,992	-35,4090354090353
0,9925	-35,4090354090353
0,993	-35,4090354090353
0,9935	-35,4090354090353
0,994	-35,4090354090353
0,9945	-35,4090354090353
0,995	-40,2930402930402
0,9955	-40,2930402930402
0,996	-30,5250305250304
0,9965	-30,5250305250304
0,997	-20,7570207570207
0,9975	8,54700854700852
0,998	42,7350427350426
0,9985	74,4810744810742
0,999	89,1330891330888
0,9995	89,1330891330888
1	98,9010989010986
1,0005	94,0170940170937
1,001	84,249084249084
1,0015	84,249084249084
1,002	69,5970695970694
1,0025	28,083028083028
1,003	-30,5250305250304
1,0035	-67,1550671550669
1,004	-76,9230769230767
1,0045	-81,8070818070815
1,005	-72,0390720390718
1,0055	-62,2710622710621
1,006	-81,8070818070815
1,0065	-125,763125763126
1,007	-135,531135531136
1,0075	-81,8070818070815
1,008	-20,7570207570207
1,0085	28,083028083028
1,009	84,249084249084
1,0095	108,669108669108
1,01	98,9010989010986
1,0105	79,3650793650791
1,011	59,8290598290596
1,0115	42,7350427350426
1,012	28,083028083028
1,0125	8,54700854700852
1,013	-20,7570207570207
1,0135	-40,2930402930402
1,014	-52,5030525030523
1,0145	-62,2710622710621
1,015	-72,0390720390718
1,0155	-62,2710622710621
1,016	-45,177045177045
1,0165	-30,5250305250304
1,017	-6,10500610500608
1,0175	28,083028083028
1,018	47,6190476190475
1,0185	64,7130647130645
1,019	74,4810744810742
1,0195	84,249084249084
1,02	84,249084249084
1,0205	103,785103785103
1,021	128,205128205129
1,0215	155,067155067155
1,022	155,067155067155
1,0225	113,553113553113
1,023	64,7130647130645
1,0235	18,3150183150183
1,024	-10,989010989011
1,0245	-20,7570207570207
1,025	-30,5250305250304
1,0255	-30,5250305250304
1,026	-30,5250305250304
1,0265	-35,4090354090353
1,027	-40,2930402930402
1,0275	-52,5030525030523
1,028	-57,3870573870572
1,0285	-52,5030525030523
1,029	-40,2930402930402
1,0295	-30,5250305250304
1,03	-30,5250305250304
1,0305	-15,8730158730158
1,031	23,1990231990231
1,0315	47,6190476190475
1,032	47,6190476190475
1,0325	42,7350427350426
1,033	42,7350427350426
1,0335	37,8510378510377
1,034	23,1990231990231
1,0345	3,66300366300365
1,035	-20,7570207570207
1,0355	-52,5030525030523
1,036	-76,9230769230767
1,0365	-81,8070818070815
1,037	-62,2710622710621
1,0375	-20,7570207570207
1,038	3,66300366300365
1,0385	13,4310134310134
1,039	18,3150183150183
1,0395	18,3150183150183
1,04	-1,22100122100122
1,0405	-20,7570207570207
1,041	-20,7570207570207
1,0415	13,4310134310134
1,042	69,5970695970694
1,0425	142,857142857143
1,043	179,48717948718
1,0435	155,067155067155
1,044	113,553113553113
1,0445	74,4810744810742
1,045	42,7350427350426
1,0455	-1,22100122100122
1,046	-67,1550671550669
1,0465	-120,87912087912
1,047	-135,531135531136
1,0475	-130,647130647131
1,048	-96,4590964590961
1,0485	-72,0390720390718
1,049	-57,3870573870572
1,0495	-40,2930402930402
1,05	-30,5250305250304
1,0505	-30,5250305250304
1,051	-15,8730158730158
1,0515	-6,10500610500608
1,052	32,9670329670329
1,0525	108,669108669108
1,053	155,067155067155
1,0535	159,95115995116
1,054	118,437118437118
1,0545	59,8290598290596
1,055	23,1990231990231
1,0555	13,4310134310134
1,056	8,54700854700852
1,0565	3,66300366300365
1,057	3,66300366300365
1,0575	-1,22100122100122
1,058	-10,989010989011
1,0585	-20,7570207570207
1,059	-20,7570207570207
1,0595	-20,7570207570207
1,06	-15,8730158730158
1,0605	-10,989010989011
1,061	-10,989010989011
1,0615	-10,989010989011
1,062	-10,989010989011
1,0625	3,66300366300365
1,063	23,1990231990231
1,0635	37,8510378510377
1,064	42,7350427350426
1,0645	32,9670329670329
1,065	8,54700854700852
1,0655	-10,989010989011
1,066	-30,5250305250304
1,0665	-35,4090354090353
1,067	-30,5250305250304
1,0675	-30,5250305250304
1,068	-30,5250305250304
1,0685	-25,6410256410256
1,069	-20,7570207570207
1,0695	-20,7570207570207
1,07	-15,8730158730158
1,0705	-10,989010989011
1,071	-6,10500610500608
1,0715	-6,10500610500608
1,072	-6,10500610500608
1,0725	-6,10500610500608
1,073	-1,22100122100122
1,0735	-1,22100122100122
1,074	3,66300366300365
1,0745	3,66300366300365
1,075	3,66300366300365
1,0755	3,66300366300365
1,076	-1,22100122100122
1,0765	-6,10500610500608
1,077	-10,989010989011
1,0775	-10,989010989011
1,078	-1,22100122100122
1,0785	8,54700854700852
1,079	13,4310134310134
1,0795	3,66300366300365
1,08	-1,22100122100122
1,0805	3,66300366300365
1,081	3,66300366300365
1,0815	8,54700854700852
1,082	18,3150183150183
1,0825	23,1990231990231
1,083	28,083028083028
1,0835	28,083028083028
1,084	32,9670329670329
1,0845	32,9670329670329
1,085	28,083028083028
1,0855	28,083028083028
1,086	28,083028083028
1,0865	18,3150183150183
1,087	8,54700854700852
1,0875	3,66300366300365
1,088	3,66300366300365
1,0885	-1,22100122100122
1,089	-6,10500610500608
1,0895	-10,989010989011
1,09	-15,8730158730158
1,0905	-20,7570207570207
1,091	-20,7570207570207
1,0915	-10,989010989011
1,092	-10,989010989011
1,0925	3,66300366300365
1,093	8,54700854700852
1,0935	8,54700854700852
1,094	3,66300366300365
1,0945	3,66300366300365
1,095	8,54700854700852
1,0955	28,083028083028
1,096	64,7130647130645
1,0965	98,9010989010986
1,097	108,669108669108
1,0975	103,785103785103
1,098	79,3650793650791
1,0985	47,6190476190475
1,099	47,6190476190475
1,0995	54,9450549450548
1,1	47,6190476190475
1,1005	23,1990231990231
1,101	-10,989010989011
1,1015	-40,2930402930402
1,102	-45,177045177045
1,1025	-57,3870573870572
1,103	-62,2710622710621
1,1035	-52,5030525030523
1,104	-72,0390720390718
1,1045	-91,5750915750913
1,105	-96,4590964590961
1,1055	-96,4590964590961
1,106	-91,5750915750913
1,1065	-81,8070818070815
1,107	-57,3870573870572
1,1075	-35,4090354090353
1,108	-15,8730158730158
1,1085	3,66300366300365
1,109	8,54700854700852
1,1095	3,66300366300365
1,11	-10,989010989011
1,1105	8,54700854700852
1,111	42,7350427350426
1,1115	84,249084249084
1,112	108,669108669108
1,1125	123,321123321123
1,113	137,973137973138
1,1135	133,089133089133
1,114	89,1330891330888
1,1145	42,7350427350426
1,115	-6,10500610500608
1,1155	-35,4090354090353
1,116	-62,2710622710621
1,1165	-62,2710622710621
1,117	-67,1550671550669
1,1175	-86,6910866910864
1,118	-96,4590964590961
1,1185	-52,5030525030523
1,119	32,9670329670329
1,1195	113,553113553113
1,12	133,089133089133
1,1205	108,669108669108
1,121	69,5970695970694
1,1215	18,3150183150183
1,122	-6,10500610500608
1,1225	3,66300366300365
1,123	3,66300366300365
1,1235	3,66300366300365
1,124	23,1990231990231
1,1245	47,6190476190475
1,125	54,9450549450548
1,1255	32,9670329670329
1,126	-1,22100122100122
1,1265	-25,6410256410256
1,127	-30,5250305250304
1,1275	-30,5250305250304
1,128	-10,989010989011
1,1285	8,54700854700852
1,129	28,083028083028
1,1295	74,4810744810742
1,13	84,249084249084
1,1305	64,7130647130645
1,131	28,083028083028
1,1315	-6,10500610500608
1,132	-35,4090354090353
1,1325	-62,2710622710621
1,133	-81,8070818070815
1,1335	-111,111111111111
1,134	-120,87912087912
1,1345	-106,227106227106
1,135	-86,6910866910864
1,1355	-76,9230769230767
1,136	-62,2710622710621
1,1365	-20,7570207570207
1,137	8,54700854700852
1,1375	59,8290598290596
1,138	123,321123321123
1,1385	169,71916971917
1,139	208,791208791209
1,1395	242,979242979243
1,14	228,327228327228
1,1405	142,857142857143
1,141	37,8510378510377
1,1415	-45,177045177045
1,142	-72,0390720390718
1,1425	-62,2710622710621
1,143	-72,0390720390718
1,1435	-101,343101343101
1,144	-120,87912087912
1,1445	-125,763125763126
1,145	-152,625152625153
1,1455	-162,393162393163
1,146	-140,415140415141
1,1465	-120,87912087912
1,147	-106,227106227106
1,1475	-91,5750915750913
1,148	-86,6910866910864
1,1485	-91,5750915750913
1,149	-91,5750915750913
1,1495	-67,1550671550669
1,15	-25,6410256410256
1,1505	8,54700854700852
1,151	64,7130647130645
1,1515	123,321123321123
1,152	147,741147741148
1,1525	174,603174603175
1,153	218,559218559219
1,1535	228,327228327228
1,154	199,023199023199
1,1545	142,857142857143
1,155	84,249084249084
1,1555	59,8290598290596
1,156	64,7130647130645
1,1565	108,669108669108
1,157	174,603174603175
1,1575	213,675213675214
1,158	164,835164835165
1,1585	74,4810744810742
1,159	3,66300366300365
1,1595	-40,2930402930402
1,16	-57,3870573870572
1,1605	-57,3870573870572
1,161	-45,177045177045
1,1615	-45,177045177045
1,162	-52,5030525030523
1,1625	-45,177045177045
1,163	-30,5250305250304
1,1635	-15,8730158730158
1,164	-20,7570207570207
1,1645	-35,4090354090353
1,165	-57,3870573870572
1,1655	-72,0390720390718
1,166	-81,8070818070815
1,1665	-81,8070818070815
1,167	-72,0390720390718
1,1675	-57,3870573870572
1,168	-45,177045177045
1,1685	-45,177045177045
1,169	-45,177045177045
1,1695	-45,177045177045
1,17	-45,177045177045
1,1705	-40,2930402930402
1,171	-35,4090354090353
1,1715	-30,5250305250304
1,172	-20,7570207570207
1,1725	-10,989010989011
1,173	-10,989010989011
1,1735	-6,10500610500608
1,174	-1,22100122100122
1,1745	8,54700854700852
1,175	23,1990231990231
1,1755	23,1990231990231
1,176	23,1990231990231
1,1765	18,3150183150183
1,177	18,3150183150183
1,1775	18,3150183150183
1,178	13,4310134310134
1,1785	8,54700854700852
1,179	8,54700854700852
1,1795	8,54700854700852
1,18	8,54700854700852
1,1805	8,54700854700852
1,181	13,4310134310134
1,1815	18,3150183150183
1,182	18,3150183150183
1,1825	18,3150183150183
1,183	23,1990231990231
1,1835	28,083028083028
1,184	23,1990231990231
1,1845	23,1990231990231
1,185	18,3150183150183
1,1855	13,4310134310134
1,186	13,4310134310134
1,1865	13,4310134310134
1,187	13,4310134310134
1,1875	8,54700854700852
1,188	8,54700854700852
1,1885	8,54700854700852
1,189	8,54700854700852
1,1895	8,54700854700852
1,19	8,54700854700852
1,1905	8,54700854700852
1,191	8,54700854700852
1,1915	13,4310134310134
1,192	13,4310134310134
1,1925	8,54700854700852
1,193	8,54700854700852
1,1935	8,54700854700852
1,194	8,54700854700852
1,1945	8,54700854700852
1,195	8,54700854700852
1,1955	3,66300366300365
1,196	-10,989010989011
1,1965	-45,177045177045
1,197	-62,2710622710621
1,1975	-57,3870573870572
1,198	-45,177045177045
1,1985	-35,4090354090353
1,199	-20,7570207570207
1,1995	-6,10500610500608
1,2	8,54700854700852
1,2005	18,3150183150183
1,201	37,8510378510377
1,2015	69,5970695970694
1,202	89,1330891330888
1,2025	108,669108669108
1,203	128,205128205129
1,2035	118,437118437118
1,204	84,249084249084
1,2045	59,8290598290596
1,205	32,9670329670329
1,2055	23,1990231990231
1,206	18,3150183150183
1,2065	3,66300366300365
1,207	-15,8730158730158
1,2075	-25,6410256410256
1,208	-20,7570207570207
1,2085	-1,22100122100122
1,209	3,66300366300365
1,2095	-1,22100122100122
1,21	3,66300366300365
1,2105	8,54700854700852
1,211	-10,989010989011
1,2115	-6,10500610500608
1,212	-1,22100122100122
1,2125	-20,7570207570207
1,213	-62,2710622710621
1,2135	-101,343101343101
1,214	-130,647130647131
1,2145	-125,763125763126
1,215	-106,227106227106
1,2155	-72,0390720390718
1,216	-30,5250305250304
1,2165	-10,989010989011
1,217	-10,989010989011
1,2175	-30,5250305250304
1,218	-40,2930402930402
1,2185	-35,4090354090353
1,219	-10,989010989011
1,2195	13,4310134310134
1,22	28,083028083028
1,2205	32,9670329670329
1,221	47,6190476190475
1,2215	59,8290598290596
1,222	59,8290598290596
1,2225	74,4810744810742
1,223	84,249084249084
1,2235	79,3650793650791
1,224	54,9450549450548
1,2245	42,7350427350426
1,225	89,1330891330888
1,2255	155,067155067155
1,226	164,835164835165
1,2265	113,553113553113
1,227	69,5970695970694
1,2275	42,7350427350426
1,228	28,083028083028
1,2285	13,4310134310134
1,229	8,54700854700852
1,2295	18,3150183150183
1,23	37,8510378510377
1,2305	47,6190476190475
1,231	18,3150183150183
1,2315	-10,989010989011
1,232	-30,5250305250304
1,2325	-52,5030525030523
1,233	-62,2710622710621
1,2335	-62,2710622710621
1,234	-62,2710622710621
1,2345	-62,2710622710621
1,235	-57,3870573870572
1,2355	-52,5030525030523
1,236	-52,5030525030523
1,2365	-57,3870573870572
1,237	-62,2710622710621
1,2375	-57,3870573870572
1,238	-45,177045177045
1,2385	-30,5250305250304
1,239	-15,8730158730158
1,2395	-6,10500610500608
1,24	-1,22100122100122
1,2405	-1,22100122100122
1,241	-6,10500610500608
1,2415	-10,989010989011
1,242	-6,10500610500608
1,2425	8,54700854700852
1,243	23,1990231990231
1,2435	28,083028083028
1,244	28,083028083028
1,2445	28,083028083028
1,245	23,1990231990231
1,2455	18,3150183150183
1,246	18,3150183150183
1,2465	13,4310134310134
1,247	8,54700854700852
1,2475	3,66300366300365
1,248	-6,10500610500608
1,2485	-10,989010989011
1,249	-10,989010989011
1,2495	-6,10500610500608
1,25	-1,22100122100122
1,2505	3,66300366300365
1,251	3,66300366300365
1,2515	-1,22100122100122
1,252	-6,10500610500608
1,2525	3,66300366300365
1,253	13,4310134310134
1,2535	23,1990231990231
1,254	23,1990231990231
1,2545	23,1990231990231
1,255	23,1990231990231
1,2555	18,3150183150183
1,256	18,3150183150183
1,2565	13,4310134310134
1,257	8,54700854700852
1,2575	3,66300366300365
1,258	3,66300366300365
1,2585	8,54700854700852
1,259	3,66300366300365
1,2595	3,66300366300365
1,26	18,3150183150183
1,2605	28,083028083028
1,261	32,9670329670329
1,2615	28,083028083028
1,262	28,083028083028
1,2625	32,9670329670329
1,263	42,7350427350426
1,2635	37,8510378510377
1,264	3,66300366300365
1,2645	-35,4090354090353
1,265	-72,0390720390718
1,2655	-76,9230769230767
1,266	-52,5030525030523
1,2665	-20,7570207570207
1,267	-6,10500610500608
1,2675	-10,989010989011
1,268	-10,989010989011
1,2685	-1,22100122100122
1,269	32,9670329670329
1,2695	37,8510378510377
1,27	18,3150183150183
1,2705	47,6190476190475
1,271	98,9010989010986
1,2715	113,553113553113
1,272	98,9010989010986
1,2725	54,9450549450548
1,273	13,4310134310134
1,2735	-30,5250305250304
1,274	-76,9230769230767
1,2745	-81,8070818070815
1,275	-67,1550671550669
1,2755	-62,2710622710621
1,276	-45,177045177045
1,2765	-10,989010989011
1,277	-1,22100122100122
1,2775	-1,22100122100122
1,278	3,66300366300365
1,2785	18,3150183150183
1,279	37,8510378510377
1,2795	64,7130647130645
1,28	79,3650793650791
1,2805	74,4810744810742
1,281	42,7350427350426
1,2815	3,66300366300365
1,282	-10,989010989011
1,2825	-15,8730158730158
1,283	-6,10500610500608
1,2835	18,3150183150183
1,284	28,083028083028
1,2845	28,083028083028
1,285	18,3150183150183
1,2855	-10,989010989011
1,286	-52,5030525030523
1,2865	-86,6910866910864
1,287	-96,4590964590961
1,2875	-96,4590964590961
1,288	-91,5750915750913
1,2885	-91,5750915750913
1,289	-76,9230769230767
1,2895	-45,177045177045
1,29	3,66300366300365
1,2905	69,5970695970694
1,291	108,669108669108
1,2915	98,9010989010986
1,292	74,4810744810742
1,2925	79,3650793650791
1,293	103,785103785103
1,2935	159,95115995116
1,294	208,791208791209
1,2945	179,48717948718
1,295	108,669108669108
1,2955	47,6190476190475
1,296	-15,8730158730158
1,2965	-57,3870573870572
1,297	-62,2710622710621
1,2975	-57,3870573870572
1,298	-52,5030525030523
1,2985	-52,5030525030523
1,299	-35,4090354090353
1,2995	-25,6410256410256
1,3	-10,989010989011
1,3005	-10,989010989011
1,301	-10,989010989011
1,3015	-6,10500610500608
1,302	8,54700854700852
1,3025	13,4310134310134
1,303	3,66300366300365
1,3035	-6,10500610500608
1,304	-10,989010989011
1,3045	-15,8730158730158
1,305	-35,4090354090353
1,3055	-67,1550671550669
1,306	-76,9230769230767
1,3065	-72,0390720390718
1,307	-62,2710622710621
1,3075	-40,2930402930402
1,308	-20,7570207570207
1,3085	-10,989010989011
1,309	-1,22100122100122
1,3095	3,66300366300365
1,31	8,54700854700852
1,3105	8,54700854700852
1,311	8,54700854700852
1,3115	8,54700854700852
1,312	18,3150183150183
1,3125	23,1990231990231
1,313	23,1990231990231
1,3135	28,083028083028
1,314	28,083028083028
1,3145	23,1990231990231
1,315	23,1990231990231
1,3155	18,3150183150183
1,316	18,3150183150183
1,3165	18,3150183150183
1,317	8,54700854700852
1,3175	-1,22100122100122
1,318	-6,10500610500608
1,3185	-1,22100122100122
1,319	8,54700854700852
1,3195	18,3150183150183
1,32	18,3150183150183
1,3205	18,3150183150183
1,321	23,1990231990231
1,3215	18,3150183150183
1,322	-6,10500610500608
1,3225	-20,7570207570207
1,323	-25,6410256410256
1,3235	-15,8730158730158
1,324	-10,989010989011
1,3245	-6,10500610500608
1,325	-10,989010989011
1,3255	-25,6410256410256
1,326	-40,2930402930402
1,3265	-52,5030525030523
1,327	-30,5250305250304
1,3275	13,4310134310134
1,328	79,3650793650791
1,3285	98,9010989010986
1,329	79,3650793650791
1,3295	32,9670329670329
1,33	-10,989010989011
1,3305	-15,8730158730158
1,331	13,4310134310134
1,3315	59,8290598290596
1,332	74,4810744810742
1,3325	69,5970695970694
1,333	59,8290598290596
1,3335	64,7130647130645
1,334	74,4810744810742
1,3345	108,669108669108
1,335	142,857142857143
1,3355	147,741147741148
1,336	89,1330891330888
1,3365	3,66300366300365
1,337	-57,3870573870572
1,3375	-72,0390720390718
1,338	-67,1550671550669
1,3385	-62,2710622710621
1,339	-62,2710622710621
1,3395	-62,2710622710621
1,34	-62,2710622710621
1,3405	-52,5030525030523
1,341	-35,4090354090353
1,3415	-10,989010989011
1,342	18,3150183150183
1,3425	28,083028083028
1,343	13,4310134310134
1,3435	-10,989010989011
1,344	-25,6410256410256
1,3445	-30,5250305250304
1,345	-20,7570207570207
1,3455	-10,989010989011
1,346	-1,22100122100122
1,3465	-1,22100122100122
1,347	-6,10500610500608
1,3475	-10,989010989011
1,348	-10,989010989011
1,3485	-15,8730158730158
1,349	-25,6410256410256
1,3495	-30,5250305250304
1,35	-20,7570207570207
1,3505	-15,8730158730158
1,351	-10,989010989011
1,3515	-10,989010989011
1,352	-6,10500610500608
1,3525	-6,10500610500608
1,353	-1,22100122100122
1,3535	3,66300366300365
1,354	3,66300366300365
1,3545	3,66300366300365
1,355	3,66300366300365
1,3555	8,54700854700852
1,356	8,54700854700852
1,3565	18,3150183150183
1,357	18,3150183150183
1,3575	18,3150183150183
1,358	23,1990231990231
1,3585	18,3150183150183
1,359	13,4310134310134
1,3595	3,66300366300365
1,36	-6,10500610500608
1,3605	-10,989010989011
1,361	-6,10500610500608
1,3615	3,66300366300365
1,362	8,54700854700852
1,3625	18,3150183150183
1,363	23,1990231990231
1,3635	23,1990231990231
1,364	23,1990231990231
1,3645	28,083028083028
1,365	37,8510378510377
1,3655	64,7130647130645
1,366	69,5970695970694
1,3665	74,4810744810742
1,367	69,5970695970694
1,3675	59,8290598290596
1,368	32,9670329670329
1,3685	23,1990231990231
1,369	8,54700854700852
1,3695	-6,10500610500608
1,37	-30,5250305250304
1,3705	-76,9230769230767
1,371	-115,995115995116
1,3715	-125,763125763126
1,372	-111,111111111111
1,3725	-81,8070818070815
1,373	-35,4090354090353
1,3735	-1,22100122100122
1,374	3,66300366300365
1,3745	-10,989010989011
1,375	-20,7570207570207
1,3755	-30,5250305250304
1,376	-25,6410256410256
1,3765	-10,989010989011
1,377	-1,22100122100122
1,3775	3,66300366300365
1,378	3,66300366300365
1,3785	-1,22100122100122
1,379	47,6190476190475
1,3795	155,067155067155
1,38	184,371184371185
1,3805	133,089133089133
1,381	74,4810744810742
1,3815	37,8510378510377
1,382	18,3150183150183
1,3825	13,4310134310134
1,383	-6,10500610500608
1,3835	-20,7570207570207
1,384	-30,5250305250304
1,3845	-15,8730158730158
1,385	3,66300366300365
1,3855	28,083028083028
1,386	47,6190476190475
1,3865	32,9670329670329
1,387	-1,22100122100122
1,3875	-25,6410256410256
1,388	-35,4090354090353
1,3885	-30,5250305250304
1,389	-15,8730158730158
1,3895	8,54700854700852
1,39	23,1990231990231
1,3905	13,4310134310134
1,391	8,54700854700852
1,3915	-1,22100122100122
1,392	8,54700854700852
1,3925	47,6190476190475
1,393	98,9010989010986
1,3935	113,553113553113
1,394	84,249084249084
1,3945	47,6190476190475
1,395	18,3150183150183
1,3955	-1,22100122100122
1,396	-10,989010989011
1,3965	-15,8730158730158
1,397	-20,7570207570207
1,3975	-25,6410256410256
1,398	-45,177045177045
1,3985	-52,5030525030523
1,399	-40,2930402930402
1,3995	-40,2930402930402
1,4	-62,2710622710621
1,4005	-67,1550671550669
1,401	-72,0390720390718
1,4015	-72,0390720390718
1,402	-81,8070818070815
1,4025	-72,0390720390718
1,403	-52,5030525030523
1,4035	-25,6410256410256
1,404	8,54700854700852
1,4045	69,5970695970694
1,405	108,669108669108
1,4055	98,9010989010986
1,406	59,8290598290596
1,4065	32,9670329670329
1,407	32,9670329670329
1,4075	13,4310134310134
1,408	-1,22100122100122
1,4085	23,1990231990231
1,409	47,6190476190475
1,4095	64,7130647130645
1,41	42,7350427350426
1,4105	23,1990231990231
1,411	3,66300366300365
1,4115	-6,10500610500608
1,412	-10,989010989011
1,4125	-15,8730158730158
1,413	-6,10500610500608
1,4135	37,8510378510377
1,414	79,3650793650791
1,4145	94,0170940170937
1,415	64,7130647130645
1,4155	23,1990231990231
1,416	-10,989010989011
1,4165	-15,8730158730158
1,417	-10,989010989011
1,4175	-10,989010989011
1,418	-6,10500610500608
1,4185	-10,989010989011
1,419	-30,5250305250304
1,4195	-57,3870573870572
1,42	-67,1550671550669
1,4205	-62,2710622710621
1,421	-52,5030525030523
1,4215	-40,2930402930402
1,422	-30,5250305250304
1,4225	-20,7570207570207
1,423	-20,7570207570207
1,4235	-20,7570207570207
1,424	-10,989010989011
1,4245	-15,8730158730158
1,425	-20,7570207570207
1,4255	-10,989010989011
1,426	28,083028083028
1,4265	84,249084249084
1,427	94,0170940170937
1,4275	47,6190476190475
1,428	8,54700854700852
1,4285	-1,22100122100122
1,429	-6,10500610500608
1,4295	-6,10500610500608
1,43	-1,22100122100122
1,4305	3,66300366300365
1,431	13,4310134310134
1,4315	28,083028083028
1,432	42,7350427350426
1,4325	47,6190476190475
1,433	37,8510378510377
1,4335	47,6190476190475
1,434	64,7130647130645
1,4345	59,8290598290596
1,435	28,083028083028
1,4355	-1,22100122100122
1,436	-15,8730158730158
1,4365	-40,2930402930402
1,437	-67,1550671550669
1,4375	-76,9230769230767
1,438	-72,0390720390718
1,4385	-62,2710622710621
1,439	-40,2930402930402
1,4395	-25,6410256410256
1,44	-10,989010989011
1,4405	3,66300366300365
1,441	23,1990231990231
1,4415	37,8510378510377
1,442	47,6190476190475
1,4425	47,6190476190475
1,443	42,7350427350426
1,4435	32,9670329670329
1,444	28,083028083028
1,4445	18,3150183150183
1,445	3,66300366300365
1,4455	-6,10500610500608
1,446	-10,989010989011
1,4465	-20,7570207570207
1,447	-30,5250305250304
1,4475	-20,7570207570207
1,448	-15,8730158730158
1,4485	-6,10500610500608
1,449	-1,22100122100122
1,4495	3,66300366300365
1,45	-10,989010989011
1,4505	-30,5250305250304
1,451	-45,177045177045
1,4515	-45,177045177045
1,452	-45,177045177045
1,4525	-45,177045177045
1,453	-40,2930402930402
1,4535	-30,5250305250304
1,454	-6,10500610500608
1,4545	23,1990231990231
1,455	64,7130647130645
1,4555	108,669108669108
1,456	123,321123321123
1,4565	128,205128205129
1,457	142,857142857143
1,4575	164,835164835165
1,458	199,023199023199
1,4585	189,255189255189
1,459	137,973137973138
1,4595	79,3650793650791
1,46	28,083028083028
1,4605	-1,22100122100122
1,461	-15,8730158730158
1,4615	-35,4090354090353
1,462	-62,2710622710621
1,4625	-72,0390720390718
1,463	-86,6910866910864
1,4635	-91,5750915750913
1,464	-91,5750915750913
1,4645	-101,343101343101
1,465	-130,647130647131
1,4655	-152,625152625153
1,466	-152,625152625153
1,4665	-120,87912087912
1,467	-86,6910866910864
1,4675	-52,5030525030523
1,468	-25,6410256410256
1,4685	-15,8730158730158
1,469	-10,989010989011
1,4695	-1,22100122100122
1,47	18,3150183150183
1,4705	47,6190476190475
1,471	84,249084249084
1,4715	108,669108669108
1,472	108,669108669108
1,4725	84,249084249084
1,473	47,6190476190475
1,4735	37,8510378510377
1,474	47,6190476190475
1,4745	69,5970695970694
1,475	84,249084249084
1,4755	84,249084249084
1,476	98,9010989010986
1,4765	108,669108669108
1,477	113,553113553113
1,4775	103,785103785103
1,478	64,7130647130645
1,4785	23,1990231990231
1,479	-10,989010989011
1,4795	-30,5250305250304
1,48	-52,5030525030523
1,4805	-67,1550671550669
1,481	-81,8070818070815
1,4815	-86,6910866910864
1,482	-72,0390720390718
1,4825	-62,2710622710621
1,483	-57,3870573870572
1,4835	-45,177045177045
1,484	-35,4090354090353
1,4845	-15,8730158730158
1,485	-6,10500610500608
1,4855	-6,10500610500608
1,486	-6,10500610500608
1,4865	-10,989010989011
1,487	-25,6410256410256
1,4875	-52,5030525030523
1,488	-45,177045177045
1,4885	-30,5250305250304
1,489	-30,5250305250304
1,4895	-30,5250305250304
1,49	-25,6410256410256
1,4905	-20,7570207570207
1,491	-10,989010989011
1,4915	-10,989010989011
1,492	-20,7570207570207
1,4925	-45,177045177045
1,493	-72,0390720390718
1,4935	-76,9230769230767
1,494	-52,5030525030523
1,4945	-10,989010989011
1,495	54,9450549450548
1,4955	108,669108669108
1,496	155,067155067155
1,4965	203,907203907204
1,497	223,443223443224
1,4975	184,371184371185
1,498	123,321123321123
1,4985	89,1330891330888
1,499	103,785103785103
1,4995	133,089133089133
1,5	123,321123321123
1,5005	54,9450549450548
1,501	-6,10500610500608
1,5015	-40,2930402930402
1,502	-57,3870573870572
1,5025	-62,2710622710621
1,503	-57,3870573870572
1,5035	-52,5030525030523
1,504	-45,177045177045
1,5045	-40,2930402930402
1,505	-45,177045177045
1,5055	-30,5250305250304
1,506	-10,989010989011
1,5065	3,66300366300365
1,507	8,54700854700852
1,5075	13,4310134310134
1,508	8,54700854700852
1,5085	3,66300366300365
1,509	-1,22100122100122
1,5095	-10,989010989011
1,51	-15,8730158730158
1,5105	-40,2930402930402
1,511	-72,0390720390718
1,5115	-81,8070818070815
1,512	-76,9230769230767
1,5125	-62,2710622710621
1,513	-35,4090354090353
1,5135	-10,989010989011
1,514	-6,10500610500608
1,5145	-1,22100122100122
1,515	3,66300366300365
1,5155	3,66300366300365
1,516	8,54700854700852
1,5165	8,54700854700852
1,517	8,54700854700852
1,5175	18,3150183150183
1,518	18,3150183150183
1,5185	3,66300366300365
1,519	-15,8730158730158
1,5195	-30,5250305250304
1,52	-20,7570207570207
1,5205	-6,10500610500608
1,521	3,66300366300365
1,5215	-10,989010989011
1,522	-6,10500610500608
1,5225	-1,22100122100122
1,523	23,1990231990231
1,5235	47,6190476190475
1,524	54,9450549450548
1,5245	54,9450549450548
1,525	47,6190476190475
1,5255	64,7130647130645
1,526	103,785103785103
1,5265	118,437118437118
1,527	108,669108669108
1,5275	94,0170940170937
1,528	69,5970695970694
1,5285	32,9670329670329
1,529	8,54700854700852
1,5295	-6,10500610500608
1,53	-10,989010989011
1,5305	-15,8730158730158
1,531	-10,989010989011
1,5315	3,66300366300365
1,532	23,1990231990231
1,5325	37,8510378510377
1,533	54,9450549450548
1,5335	47,6190476190475
1,534	18,3150183150183
1,5345	-6,10500610500608
1,535	-30,5250305250304
1,5355	-45,177045177045
1,536	-57,3870573870572
1,5365	-91,5750915750913
1,537	-125,763125763126
1,5375	-140,415140415141
1,538	-130,647130647131
1,5385	-111,111111111111
1,539	-106,227106227106
1,5395	-72,0390720390718
1,54	-30,5250305250304
1,5405	8,54700854700852
1,541	28,083028083028
1,5415	23,1990231990231
1,542	18,3150183150183
1,5425	13,4310134310134
1,543	18,3150183150183
1,5435	23,1990231990231
1,544	23,1990231990231
1,5445	23,1990231990231
1,545	32,9670329670329
1,5455	47,6190476190475
1,546	69,5970695970694
1,5465	98,9010989010986
1,547	137,973137973138
1,5475	118,437118437118
1,548	47,6190476190475
1,5485	-10,989010989011
1,549	-40,2930402930402
1,5495	-45,177045177045
1,55	-45,177045177045
1,5505	-45,177045177045
1,551	-40,2930402930402
1,5515	-30,5250305250304
1,552	-10,989010989011
1,5525	28,083028083028
1,553	74,4810744810742
1,5535	103,785103785103
1,554	123,321123321123
1,5545	155,067155067155
1,555	189,255189255189
1,5555	179,48717948718
1,556	108,669108669108
1,5565	42,7350427350426
1,557	3,66300366300365
1,5575	-15,8730158730158
1,558	-30,5250305250304
1,5585	-57,3870573870572
1,559	-91,5750915750913
1,5595	-120,87912087912
1,56	-120,87912087912
1,5605	-111,111111111111
1,561	-91,5750915750913
1,5615	-76,9230769230767
1,562	-62,2710622710621
1,5625	-52,5030525030523
1,563	-35,4090354090353
1,5635	-25,6410256410256
1,564	-10,989010989011
1,5645	8,54700854700852
1,565	23,1990231990231
1,5655	37,8510378510377
1,566	59,8290598290596
1,5665	69,5970695970694
1,567	69,5970695970694
1,5675	59,8290598290596
1,568	32,9670329670329
1,5685	8,54700854700852
1,569	-10,989010989011
1,5695	-20,7570207570207
1,57	-20,7570207570207
1,5705	-15,8730158730158
1,571	-10,989010989011
1,5715	-10,989010989011
1,572	-10,989010989011
1,5725	-6,10500610500608
1,573	-6,10500610500608
1,5735	3,66300366300365
1,574	8,54700854700852
1,5745	8,54700854700852
1,575	8,54700854700852
1,5755	3,66300366300365
1,576	3,66300366300365
1,5765	-6,10500610500608
1,577	-6,10500610500608
1,5775	-1,22100122100122
1,578	3,66300366300365
1,5785	8,54700854700852
1,579	8,54700854700852
1,5795	3,66300366300365
1,58	-1,22100122100122
1,5805	-1,22100122100122
1,581	-1,22100122100122
1,5815	-1,22100122100122
1,582	-1,22100122100122
1,5825	3,66300366300365
1,583	8,54700854700852
1,5835	18,3150183150183
1,584	23,1990231990231
1,5845	28,083028083028
1,585	32,9670329670329
1,5855	32,9670329670329
1,586	32,9670329670329
1,5865	13,4310134310134
1,587	-10,989010989011
1,5875	-20,7570207570207
1,588	-30,5250305250304
1,5885	-52,5030525030523
1,589	-52,5030525030523
1,5895	-40,2930402930402
1,59	-52,5030525030523
1,5905	-52,5030525030523
1,591	-35,4090354090353
1,5915	3,66300366300365
1,592	47,6190476190475
1,5925	89,1330891330888
1,593	113,553113553113
1,5935	108,669108669108
1,594	84,249084249084
1,5945	84,249084249084
1,595	98,9010989010986
1,5955	98,9010989010986
1,596	79,3650793650791
1,5965	42,7350427350426
1,597	18,3150183150183
1,5975	-6,10500610500608
1,598	-10,989010989011
1,5985	-10,989010989011
1,599	-20,7570207570207
1,5995	-20,7570207570207
1,6	-15,8730158730158
1,6005	-10,989010989011
1,601	13,4310134310134
1,6015	32,9670329670329
1,602	37,8510378510377
1,6025	28,083028083028
1,603	8,54700854700852
1,6035	-20,7570207570207
1,604	-72,0390720390718
1,6045	-101,343101343101
1,605	-111,111111111111
1,6055	-120,87912087912
1,606	-120,87912087912
1,6065	-111,111111111111
1,607	-91,5750915750913
1,6075	-67,1550671550669
1,608	-30,5250305250304
1,6085	13,4310134310134
1,609	54,9450549450548
1,6095	89,1330891330888
1,61	118,437118437118
1,6105	128,205128205129
1,611	128,205128205129
1,6115	103,785103785103
1,612	64,7130647130645
1,6125	23,1990231990231
1,613	-10,989010989011
1,6135	-52,5030525030523
1,614	-72,0390720390718
1,6145	-72,0390720390718
1,615	-72,0390720390718
1,6155	-57,3870573870572
1,616	-15,8730158730158
1,6165	28,083028083028
1,617	64,7130647130645
1,6175	84,249084249084
1,618	94,0170940170937
1,6185	84,249084249084
1,619	59,8290598290596
1,6195	32,9670329670329
1,62	18,3150183150183
1,6205	3,66300366300365
1,621	-10,989010989011
1,6215	-25,6410256410256
1,622	-30,5250305250304
1,6225	-30,5250305250304
1,623	-52,5030525030523
1,6235	-72,0390720390718
1,624	-72,0390720390718
1,6245	-52,5030525030523
1,625	-30,5250305250304
1,6255	-10,989010989011
1,626	-1,22100122100122
1,6265	8,54700854700852
1,627	23,1990231990231
1,6275	32,9670329670329
1,628	37,8510378510377
1,6285	42,7350427350426
1,629	64,7130647130645
1,6295	108,669108669108
1,63	123,321123321123
1,6305	103,785103785103
1,631	59,8290598290596
1,6315	8,54700854700852
1,632	-6,10500610500608
1,6325	-6,10500610500608
1,633	8,54700854700852
1,6335	23,1990231990231
1,634	28,083028083028
1,6345	23,1990231990231
1,635	8,54700854700852
1,6355	-10,989010989011
1,636	-30,5250305250304
1,6365	-40,2930402930402
1,637	-52,5030525030523
1,6375	-57,3870573870572
1,638	-62,2710622710621
1,6385	-67,1550671550669
1,639	-76,9230769230767
1,6395	-81,8070818070815
1,64	-81,8070818070815
1,6405	-72,0390720390718
1,641	-40,2930402930402
1,6415	3,66300366300365
1,642	84,249084249084
1,6425	159,95115995116
1,643	184,371184371185
1,6435	164,835164835165
1,644	123,321123321123
1,6445	59,8290598290596
1,645	-1,22100122100122
1,6455	-30,5250305250304
1,646	-40,2930402930402
1,6465	-45,177045177045
1,647	-40,2930402930402
1,6475	-35,4090354090353
1,648	-35,4090354090353
1,6485	-30,5250305250304
1,649	-25,6410256410256
1,6495	-25,6410256410256
1,65	-10,989010989011
1,6505	32,9670329670329
1,651	89,1330891330888
1,6515	123,321123321123
1,652	108,669108669108
1,6525	69,5970695970694
1,653	23,1990231990231
1,6535	-10,989010989011
1,654	-30,5250305250304
1,6545	-45,177045177045
1,655	-45,177045177045
1,6555	-25,6410256410256
1,656	-20,7570207570207
1,6565	-35,4090354090353
1,657	-52,5030525030523
1,6575	-52,5030525030523
1,658	-52,5030525030523
1,6585	-35,4090354090353
1,659	-30,5250305250304
1,6595	-20,7570207570207
1,66	-15,8730158730158
1,6605	-10,989010989011
1,661	13,4310134310134
1,6615	54,9450549450548
1,662	98,9010989010986
1,6625	128,205128205129
1,663	123,321123321123
1,6635	89,1330891330888
1,664	89,1330891330888
1,6645	94,0170940170937
1,665	74,4810744810742
1,6655	47,6190476190475
1,666	8,54700854700852
1,6665	-10,989010989011
1,667	-10,989010989011
1,6675	-15,8730158730158
1,668	-30,5250305250304
1,6685	-62,2710622710621
1,669	-115,995115995116
1,6695	-191,697191697192
1,67	-216,117216117216
1,6705	-186,813186813187
1,671	-140,415140415141
1,6715	-101,343101343101
1,672	-57,3870573870572
1,6725	-15,8730158730158
1,673	8,54700854700852
1,6735	28,083028083028
1,674	47,6190476190475
1,6745	47,6190476190475
1,675	54,9450549450548
1,6755	54,9450549450548
1,676	54,9450549450548
1,6765	64,7130647130645
1,677	59,8290598290596
1,6775	54,9450549450548
1,678	47,6190476190475
1,6785	47,6190476190475
1,679	42,7350427350426
1,6795	37,8510378510377
1,68	37,8510378510377
1,6805	23,1990231990231
1,681	8,54700854700852
1,6815	-6,10500610500608
1,682	-25,6410256410256
1,6825	-45,177045177045
1,683	-35,4090354090353
1,6835	-15,8730158730158
1,684	-10,989010989011
1,6845	-6,10500610500608
1,685	-6,10500610500608
1,6855	-6,10500610500608
1,686	3,66300366300365
1,6865	18,3150183150183
1,687	69,5970695970694
1,6875	123,321123321123
1,688	164,835164835165
1,6885	189,255189255189
1,689	174,603174603175
1,6895	133,089133089133
1,69	74,4810744810742
1,6905	28,083028083028
1,691	-10,989010989011
1,6915	-25,6410256410256
1,692	-15,8730158730158
1,6925	-10,989010989011
1,693	-15,8730158730158
1,6935	-35,4090354090353
1,694	-45,177045177045
1,6945	-40,2930402930402
1,695	-35,4090354090353
1,6955	-40,2930402930402
1,696	-45,177045177045
1,6965	-35,4090354090353
1,697	-30,5250305250304
1,6975	-25,6410256410256
1,698	-15,8730158730158
1,6985	-15,8730158730158
1,699	-10,989010989011
1,6995	-6,10500610500608
1,7	-1,22100122100122
1,7005	3,66300366300365
1,701	3,66300366300365
1,7015	-1,22100122100122
1,702	-10,989010989011
1,7025	-10,989010989011
1,703	-30,5250305250304
1,7035	-40,2930402930402
1,704	-40,2930402930402
1,7045	-52,5030525030523
1,705	-52,5030525030523
1,7055	-45,177045177045
1,706	-35,4090354090353
1,7065	-25,6410256410256
1,707	-15,8730158730158
1,7075	-6,10500610500608
1,708	-6,10500610500608
1,7085	3,66300366300365
1,709	28,083028083028
1,7095	64,7130647130645
1,71	89,1330891330888
1,7105	89,1330891330888
1,711	94,0170940170937
1,7115	103,785103785103
1,712	64,7130647130645
1,7125	3,66300366300365
1,713	-35,4090354090353
1,7135	-45,177045177045
1,714	-40,2930402930402
1,7145	-30,5250305250304
1,715	-10,989010989011
1,7155	-6,10500610500608
1,716	-15,8730158730158
1,7165	-30,5250305250304
1,717	-10,989010989011
1,7175	13,4310134310134
1,718	47,6190476190475
1,7185	98,9010989010986
1,719	113,553113553113
1,7195	89,1330891330888
1,72	28,083028083028
1,7205	-20,7570207570207
1,721	-30,5250305250304
1,7215	-6,10500610500608
1,722	32,9670329670329
1,7225	74,4810744810742
1,723	128,205128205129
1,7235	147,741147741148
1,724	103,785103785103
1,7245	42,7350427350426
1,725	-1,22100122100122
1,7255	-30,5250305250304
1,726	-62,2710622710621
1,7265	-86,6910866910864
1,727	-101,343101343101
1,7275	-91,5750915750913
1,728	-91,5750915750913
1,7285	-91,5750915750913
1,729	-76,9230769230767
1,7295	-52,5030525030523
1,73	-25,6410256410256
1,7305	-6,10500610500608
1,731	13,4310134310134
1,7315	28,083028083028
1,732	32,9670329670329
1,7325	47,6190476190475
1,733	74,4810744810742
1,7335	74,4810744810742
1,734	64,7130647130645
1,7345	32,9670329670329
1,735	3,66300366300365
1,7355	-20,7570207570207
1,736	-20,7570207570207
1,7365	-20,7570207570207
1,737	-20,7570207570207
1,7375	-15,8730158730158
1,738	-10,989010989011
1,7385	28,083028083028
1,739	84,249084249084
1,7395	98,9010989010986
1,74	69,5970695970694
1,7405	37,8510378510377
1,741	28,083028083028
1,7415	28,083028083028
1,742	18,3150183150183
1,7425	-1,22100122100122
1,743	-20,7570207570207
1,7435	-30,5250305250304
1,744	-40,2930402930402
1,7445	-52,5030525030523
1,745	-62,2710622710621
1,7455	-76,9230769230767
1,746	-101,343101343101
1,7465	-125,763125763126
1,747	-115,995115995116
1,7475	-96,4590964590961
1,748	-72,0390720390718
1,7485	-40,2930402930402
1,749	3,66300366300365
1,7495	32,9670329670329
1,75	47,6190476190475
1,7505	47,6190476190475
1,751	42,7350427350426
1,7515	37,8510378510377
1,752	32,9670329670329
1,7525	32,9670329670329
1,753	32,9670329670329
1,7535	42,7350427350426
1,754	47,6190476190475
1,7545	47,6190476190475
1,755	42,7350427350426
1,7555	32,9670329670329
1,756	23,1990231990231
1,7565	18,3150183150183
1,757	8,54700854700852
1,7575	8,54700854700852
1,758	13,4310134310134
1,7585	18,3150183150183
1,759	18,3150183150183
1,7595	18,3150183150183
1,76	13,4310134310134
1,7605	13,4310134310134
1,761	13,4310134310134
1,7615	8,54700854700852
1,762	-10,989010989011
1,7625	-30,5250305250304
1,763	-25,6410256410256
1,7635	-6,10500610500608
1,764	18,3150183150183
1,7645	28,083028083028
1,765	32,9670329670329
1,7655	28,083028083028
1,766	8,54700854700852
1,7665	-10,989010989011
1,767	-6,10500610500608
1,7675	18,3150183150183
1,768	32,9670329670329
1,7685	37,8510378510377
1,769	32,9670329670329
1,7695	8,54700854700852
1,77	-15,8730158730158
1,7705	-30,5250305250304
1,771	-30,5250305250304
1,7715	-35,4090354090353
1,772	-30,5250305250304
1,7725	-10,989010989011
1,773	3,66300366300365
1,7735	13,4310134310134
1,774	8,54700854700852
1,7745	-10,989010989011
1,775	-20,7570207570207
1,7755	-25,6410256410256
1,776	-35,4090354090353
1,7765	-35,4090354090353
1,777	-20,7570207570207
1,7775	-6,10500610500608
1,778	28,083028083028
1,7785	84,249084249084
1,779	137,973137973138
1,7795	179,48717948718
1,78	169,71916971917
1,7805	98,9010989010986
1,781	42,7350427350426
1,7815	23,1990231990231
1,782	28,083028083028
1,7825	8,54700854700852
1,783	-10,989010989011
1,7835	-15,8730158730158
1,784	-15,8730158730158
1,7845	-15,8730158730158
1,785	-6,10500610500608
1,7855	28,083028083028
1,786	74,4810744810742
1,7865	79,3650793650791
1,787	47,6190476190475
1,7875	8,54700854700852
1,788	-30,5250305250304
1,7885	-45,177045177045
1,789	-52,5030525030523
1,7895	-52,5030525030523
1,79	-52,5030525030523
1,7905	-57,3870573870572
1,791	-57,3870573870572
1,7915	-52,5030525030523
1,792	-45,177045177045
1,7925	-40,2930402930402
1,793	-35,4090354090353
1,7935	-35,4090354090353
1,794	-30,5250305250304
1,7945	-30,5250305250304
1,795	-30,5250305250304
1,7955	-30,5250305250304
1,796	-30,5250305250304
1,7965	-20,7570207570207
1,797	-6,10500610500608
1,7975	18,3150183150183
1,798	32,9670329670329
1,7985	37,8510378510377
1,799	32,9670329670329
1,7995	23,1990231990231
1,8	13,4310134310134
1,8005	13,4310134310134
1,801	8,54700854700852
1,8015	8,54700854700852
1,802	8,54700854700852
1,8025	13,4310134310134
1,803	18,3150183150183
1,8035	23,1990231990231
1,804	18,3150183150183
1,8045	18,3150183150183
1,805	18,3150183150183
1,8055	13,4310134310134
1,806	8,54700854700852
1,8065	8,54700854700852
1,807	18,3150183150183
1,8075	32,9670329670329
1,808	28,083028083028
1,8085	8,54700854700852
1,809	-6,10500610500608
1,8095	-10,989010989011
1,81	-6,10500610500608
1,8105	-6,10500610500608
1,811	-10,989010989011
1,8115	-20,7570207570207
1,812	-30,5250305250304
1,8125	-40,2930402930402
1,813	-30,5250305250304
1,8135	-15,8730158730158
1,814	3,66300366300365
1,8145	23,1990231990231
1,815	23,1990231990231
1,8155	18,3150183150183
1,816	3,66300366300365
1,8165	3,66300366300365
1,817	3,66300366300365
1,8175	-10,989010989011
1,818	-30,5250305250304
1,8185	-40,2930402930402
1,819	-20,7570207570207
1,8195	-1,22100122100122
1,82	18,3150183150183
1,8205	28,083028083028
1,821	28,083028083028
1,8215	28,083028083028
1,822	23,1990231990231
1,8225	23,1990231990231
1,823	23,1990231990231
1,8235	28,083028083028
1,824	23,1990231990231
1,8245	18,3150183150183
1,825	18,3150183150183
1,8255	18,3150183150183
1,826	13,4310134310134
1,8265	8,54700854700852
1,827	-1,22100122100122
1,8275	3,66300366300365
1,828	3,66300366300365
1,8285	8,54700854700852
1,829	8,54700854700852
1,8295	3,66300366300365
1,83	3,66300366300365
1,8305	23,1990231990231
1,831	74,4810744810742
1,8315	108,669108669108
1,832	108,669108669108
1,8325	79,3650793650791
1,833	64,7130647130645
1,8335	42,7350427350426
1,834	28,083028083028
1,8345	8,54700854700852
1,835	-6,10500610500608
1,8355	-15,8730158730158
1,836	-35,4090354090353
1,8365	-45,177045177045
1,837	-52,5030525030523
1,8375	-62,2710622710621
1,838	-62,2710622710621
1,8385	-35,4090354090353
1,839	-10,989010989011
1,8395	-1,22100122100122
1,84	3,66300366300365
1,8405	-1,22100122100122
1,841	-1,22100122100122
1,8415	3,66300366300365
1,842	8,54700854700852
1,8425	18,3150183150183
1,843	28,083028083028
1,8435	28,083028083028
1,844	23,1990231990231
1,8445	18,3150183150183
1,845	3,66300366300365
1,8455	-10,989010989011
1,846	-20,7570207570207
1,8465	3,66300366300365
1,847	47,6190476190475
1,8475	64,7130647130645
1,848	47,6190476190475
1,8485	8,54700854700852
1,849	-25,6410256410256
1,8495	-35,4090354090353
1,85	-35,4090354090353
1,8505	-30,5250305250304
1,851	-30,5250305250304
1,8515	-52,5030525030523
1,852	-86,6910866910864
1,8525	-91,5750915750913
1,853	-62,2710622710621
1,8535	-15,8730158730158
1,854	18,3150183150183
1,8545	42,7350427350426
1,855	59,8290598290596
1,8555	84,249084249084
1,856	94,0170940170937
1,8565	89,1330891330888
1,857	69,5970695970694
1,8575	42,7350427350426
1,858	18,3150183150183
1,8585	-1,22100122100122
1,859	-10,989010989011
1,8595	-10,989010989011
1,86	-20,7570207570207
1,8605	-20,7570207570207
1,861	-20,7570207570207
1,8615	-15,8730158730158
1,862	-6,10500610500608
1,8625	3,66300366300365
1,863	8,54700854700852
1,8635	8,54700854700852
1,864	18,3150183150183
1,8645	18,3150183150183
1,865	18,3150183150183
1,8655	8,54700854700852
1,866	-10,989010989011
1,8665	-30,5250305250304
1,867	-30,5250305250304
1,8675	-30,5250305250304
1,868	-30,5250305250304
1,8685	-20,7570207570207
1,869	-10,989010989011
1,8695	-10,989010989011
1,87	-20,7570207570207
1,8705	-30,5250305250304
1,871	-40,2930402930402
1,8715	-40,2930402930402
1,872	-15,8730158730158
1,8725	37,8510378510377
1,873	123,321123321123
1,8735	164,835164835165
1,874	118,437118437118
1,8745	54,9450549450548
1,875	18,3150183150183
1,8755	13,4310134310134
1,876	28,083028083028
1,8765	37,8510378510377
1,877	23,1990231990231
1,8775	-1,22100122100122
1,878	-20,7570207570207
1,8785	-30,5250305250304
1,879	-20,7570207570207
1,8795	-10,989010989011
1,88	-15,8730158730158
1,8805	-30,5250305250304
1,881	-25,6410256410256
1,8815	-6,10500610500608
1,882	13,4310134310134
1,8825	32,9670329670329
1,883	54,9450549450548
1,8835	74,4810744810742
1,884	94,0170940170937
1,8845	118,437118437118
1,885	128,205128205129
1,8855	98,9010989010986
1,886	42,7350427350426
1,8865	-10,989010989011
1,887	-62,2710622710621
1,8875	-91,5750915750913
1,888	-130,647130647131
1,8885	-157,509157509158
1,889	-152,625152625153
1,8895	-111,111111111111
1,89	-76,9230769230767
1,8905	-57,3870573870572
1,891	-35,4090354090353
1,8915	-20,7570207570207
1,892	-6,10500610500608
1,8925	3,66300366300365
1,893	8,54700854700852
1,8935	18,3150183150183
1,894	23,1990231990231
1,8945	18,3150183150183
1,895	13,4310134310134
1,8955	18,3150183150183
1,896	23,1990231990231
1,8965	42,7350427350426
1,897	54,9450549450548
1,8975	59,8290598290596
1,898	42,7350427350426
1,8985	28,083028083028
1,899	23,1990231990231
1,8995	18,3150183150183
1,9	23,1990231990231
1,9005	18,3150183150183
1,901	3,66300366300365
1,9015	3,66300366300365
1,902	8,54700854700852
1,9025	18,3150183150183
1,903	23,1990231990231
1,9035	23,1990231990231
1,904	23,1990231990231
1,9045	23,1990231990231
1,905	42,7350427350426
1,9055	47,6190476190475
1,906	37,8510378510377
1,9065	28,083028083028
1,907	23,1990231990231
1,9075	-1,22100122100122
1,908	-20,7570207570207
1,9085	-30,5250305250304
1,909	-40,2930402930402
1,9095	-40,2930402930402
1,91	-45,177045177045
1,9105	-57,3870573870572
1,911	-67,1550671550669
1,9115	-72,0390720390718
1,912	-72,0390720390718
1,9125	-57,3870573870572
1,913	-30,5250305250304
1,9135	-6,10500610500608
1,914	8,54700854700852
1,9145	3,66300366300365
1,915	-10,989010989011
1,9155	-10,989010989011
1,916	-10,989010989011
1,9165	3,66300366300365
1,917	23,1990231990231
1,9175	59,8290598290596
1,918	103,785103785103
1,9185	164,835164835165
1,919	194,139194139194
1,9195	159,95115995116
1,92	98,9010989010986
1,9205	64,7130647130645
1,921	59,8290598290596
1,9215	47,6190476190475
1,922	23,1990231990231
1,9225	-10,989010989011
1,923	-30,5250305250304
1,9235	-45,177045177045
1,924	-52,5030525030523
1,9245	-45,177045177045
1,925	-35,4090354090353
1,9255	-30,5250305250304
1,926	-10,989010989011
1,9265	-6,10500610500608
1,927	-10,989010989011
1,9275	-10,989010989011
1,928	8,54700854700852
1,9285	32,9670329670329
1,929	47,6190476190475
1,9295	47,6190476190475
1,93	32,9670329670329
1,9305	18,3150183150183
1,931	-10,989010989011
1,9315	-25,6410256410256
1,932	-25,6410256410256
1,9325	-20,7570207570207
1,933	3,66300366300365
1,9335	28,083028083028
1,934	32,9670329670329
1,9345	18,3150183150183
1,935	-1,22100122100122
1,9355	-10,989010989011
1,936	-15,8730158730158
1,9365	-25,6410256410256
1,937	-25,6410256410256
1,9375	-30,5250305250304
1,938	-30,5250305250304
1,9385	-25,6410256410256
1,939	-25,6410256410256
1,9395	-30,5250305250304
1,94	-25,6410256410256
1,9405	-15,8730158730158
1,941	-20,7570207570207
1,9415	-30,5250305250304
1,942	-30,5250305250304
1,9425	-35,4090354090353
1,943	-52,5030525030523
1,9435	-62,2710622710621
1,944	-45,177045177045
1,9445	-30,5250305250304
1,945	-10,989010989011
1,9455	3,66300366300365
1,946	28,083028083028
1,9465	47,6190476190475
1,947	69,5970695970694
1,9475	113,553113553113
1,948	174,603174603175
1,9485	179,48717948718
1,949	128,205128205129
1,9495	108,669108669108
1,95	89,1330891330888
1,9505	47,6190476190475
1,951	-6,10500610500608
1,9515	-52,5030525030523
1,952	-86,6910866910864
1,9525	-91,5750915750913
1,953	-86,6910866910864
1,9535	-76,9230769230767
1,954	-76,9230769230767
1,9545	-76,9230769230767
1,955	-76,9230769230767
1,9555	-62,2710622710621
1,956	-35,4090354090353
1,9565	8,54700854700852
1,957	64,7130647130645
1,9575	84,249084249084
1,958	64,7130647130645
1,9585	32,9670329670329
1,959	13,4310134310134
1,9595	8,54700854700852
1,96	13,4310134310134
1,9605	8,54700854700852
1,961	3,66300366300365
1,9615	-10,989010989011
1,962	-10,989010989011
1,9625	-1,22100122100122
1,963	18,3150183150183
1,9635	23,1990231990231
1,964	28,083028083028
1,9645	23,1990231990231
1,965	13,4310134310134
1,9655	3,66300366300365
1,966	-1,22100122100122
1,9665	3,66300366300365
1,967	8,54700854700852
1,9675	3,66300366300365
1,968	-10,989010989011
1,9685	-15,8730158730158
1,969	-20,7570207570207
1,9695	-20,7570207570207
1,97	-15,8730158730158
1,9705	-10,989010989011
1,971	3,66300366300365
1,9715	28,083028083028
1,972	54,9450549450548
1,9725	69,5970695970694
1,973	74,4810744810742
1,9735	59,8290598290596
1,974	42,7350427350426
1,9745	32,9670329670329
1,975	23,1990231990231
1,9755	13,4310134310134
1,976	8,54700854700852
1,9765	-6,10500610500608
1,977	-25,6410256410256
1,9775	-72,0390720390718
1,978	-91,5750915750913
1,9785	-67,1550671550669
1,979	-25,6410256410256
1,9795	-6,10500610500608
1,98	8,54700854700852
1,9805	13,4310134310134
1,981	18,3150183150183
1,9815	18,3150183150183
1,982	13,4310134310134
1,9825	8,54700854700852
1,983	8,54700854700852
1,9835	8,54700854700852
1,984	8,54700854700852
1,9845	8,54700854700852
1,985	-6,10500610500608
1,9855	-25,6410256410256
1,986	-30,5250305250304
1,9865	-20,7570207570207
1,987	-15,8730158730158
1,9875	-10,989010989011
1,988	-10,989010989011
1,9885	-10,989010989011
1,989	-10,989010989011
1,9895	-1,22100122100122
1,99	18,3150183150183
1,9905	47,6190476190475
1,991	98,9010989010986
1,9915	128,205128205129
1,992	142,857142857143
1,9925	123,321123321123
1,993	103,785103785103
1,9935	103,785103785103
1,994	98,9010989010986
1,9945	74,4810744810742
1,995	37,8510378510377
1,9955	3,66300366300365
1,996	-25,6410256410256
1,9965	-45,177045177045
1,997	-52,5030525030523
1,9975	-57,3870573870572
1,998	-52,5030525030523
1,9985	-57,3870573870572
1,999	-67,1550671550669
1,9995	-81,8070818070815
2	-91,5750915750913
2,0005	-91,5750915750913
2,001	-81,8070818070815
2,0015	-62,2710622710621
2,002	-40,2930402930402
2,0025	-20,7570207570207
2,003	-6,10500610500608
2,0035	8,54700854700852
2,004	18,3150183150183
2,0045	23,1990231990231
2,005	32,9670329670329
2,0055	59,8290598290596
2,006	79,3650793650791
2,0065	98,9010989010986
2,007	103,785103785103
2,0075	69,5970695970694
2,008	32,9670329670329
2,0085	8,54700854700852
2,009	-6,10500610500608
2,0095	-10,989010989011
2,01	-10,989010989011
2,0105	-15,8730158730158
2,011	-20,7570207570207
2,0115	-25,6410256410256
2,012	-25,6410256410256
2,0125	-25,6410256410256
2,013	-25,6410256410256
2,0135	-25,6410256410256
2,014	-20,7570207570207
2,0145	-20,7570207570207
2,015	-20,7570207570207
2,0155	-20,7570207570207
2,016	-20,7570207570207
2,0165	-15,8730158730158
2,017	3,66300366300365
2,0175	18,3150183150183
2,018	18,3150183150183
2,0185	13,4310134310134
2,019	13,4310134310134
2,0195	18,3150183150183
2,02	59,8290598290596
2,0205	108,669108669108
2,021	133,089133089133
2,0215	128,205128205129
2,022	89,1330891330888
2,0225	47,6190476190475
2,023	18,3150183150183
2,0235	8,54700854700852
2,024	23,1990231990231
2,0245	23,1990231990231
2,025	-20,7570207570207
2,0255	-91,5750915750913
2,026	-135,531135531136
2,0265	-162,393162393163
2,027	-172,161172161172
2,0275	-167,277167277168
2,028	-135,531135531136
2,0285	-106,227106227106
2,029	-72,0390720390718
2,0295	-40,2930402930402
2,03	-20,7570207570207
2,0305	3,66300366300365
2,031	54,9450549450548
2,0315	142,857142857143
2,032	247,863247863248
2,0325	279,60927960928
2,033	203,907203907204
2,0335	98,9010989010986
2,034	23,1990231990231
2,0345	3,66300366300365
2,035	-1,22100122100122
2,0355	-10,989010989011
2,036	-20,7570207570207
2,0365	-15,8730158730158
2,037	-6,10500610500608
2,0375	3,66300366300365
2,038	13,4310134310134
2,0385	47,6190476190475
2,039	69,5970695970694
2,0395	54,9450549450548
2,04	28,083028083028
2,0405	3,66300366300365
2,041	-15,8730158730158
2,0415	-30,5250305250304
2,042	-45,177045177045
2,0425	-52,5030525030523
2,043	-57,3870573870572
2,0435	-62,2710622710621
2,044	-62,2710622710621
2,0445	-45,177045177045
2,045	-30,5250305250304
2,0455	-30,5250305250304
2,046	-30,5250305250304
2,0465	-20,7570207570207
2,047	-6,10500610500608
2,0475	8,54700854700852
2,048	13,4310134310134
2,0485	3,66300366300365
2,049	-10,989010989011
2,0495	-25,6410256410256
2,05	-25,6410256410256
2,0505	-20,7570207570207
2,051	-10,989010989011
2,0515	-1,22100122100122
2,052	13,4310134310134
2,0525	23,1990231990231
2,053	32,9670329670329
2,0535	42,7350427350426
2,054	59,8290598290596
2,0545	64,7130647130645
2,055	69,5970695970694
2,0555	89,1330891330888
2,056	103,785103785103
2,0565	103,785103785103
2,057	79,3650793650791
2,0575	47,6190476190475
2,058	23,1990231990231
2,0585	3,66300366300365
2,059	-6,10500610500608
2,0595	-10,989010989011
2,06	-10,989010989011
2,0605	-10,989010989011
2,061	-10,989010989011
2,0615	-15,8730158730158
2,062	-15,8730158730158
2,0625	-15,8730158730158
2,063	-20,7570207570207
2,0635	-15,8730158730158
2,064	-15,8730158730158
2,0645	-15,8730158730158
2,065	-10,989010989011
2,0655	-6,10500610500608
2,066	-6,10500610500608
2,0665	-10,989010989011
2,067	-6,10500610500608
2,0675	-6,10500610500608
2,068	-6,10500610500608
2,0685	-1,22100122100122
2,069	-1,22100122100122
2,0695	3,66300366300365
2,07	3,66300366300365
2,0705	8,54700854700852
2,071	3,66300366300365
2,0715	3,66300366300365
2,072	3,66300366300365
2,0725	3,66300366300365
2,073	-1,22100122100122
2,0735	-6,10500610500608
2,074	-6,10500610500608
2,0745	-1,22100122100122
2,075	3,66300366300365
2,0755	-1,22100122100122
2,076	-20,7570207570207
2,0765	-35,4090354090353
2,077	-35,4090354090353
2,0775	-35,4090354090353
2,078	-25,6410256410256
2,0785	-15,8730158730158
2,079	3,66300366300365
2,0795	23,1990231990231
2,08	32,9670329670329
2,0805	37,8510378510377
2,081	54,9450549450548
2,0815	79,3650793650791
2,082	128,205128205129
2,0825	155,067155067155
2,083	164,835164835165
2,0835	137,973137973138
2,084	84,249084249084
2,0845	37,8510378510377
2,085	3,66300366300365
2,0855	-10,989010989011
2,086	-20,7570207570207
2,0865	-62,2710622710621
2,087	-120,87912087912
2,0875	-167,277167277168
2,088	-177,045177045177
2,0885	-177,045177045177
2,089	-172,161172161172
2,0895	-145,299145299146
2,09	-111,111111111111
2,0905	-91,5750915750913
2,091	-62,2710622710621
2,0915	-15,8730158730158
2,092	13,4310134310134
2,0925	47,6190476190475
2,093	84,249084249084
2,0935	103,785103785103
2,094	108,669108669108
2,0945	133,089133089133
2,095	179,48717948718
2,0955	233,211233211233
2,096	238,095238095238
2,0965	189,255189255189
2,097	137,973137973138
2,0975	84,249084249084
2,098	28,083028083028
2,0985	-6,10500610500608
2,099	-25,6410256410256
2,0995	-35,4090354090353
2,1	-45,177045177045
2,1005	-30,5250305250304
2,101	8,54700854700852
2,1015	23,1990231990231
2,102	3,66300366300365
2,1025	-30,5250305250304
2,103	-57,3870573870572
2,1035	-72,0390720390718
2,104	-72,0390720390718
2,1045	-72,0390720390718
2,105	-72,0390720390718
2,1055	-67,1550671550669
2,106	-62,2710622710621
2,1065	-62,2710622710621
2,107	-62,2710622710621
2,1075	-62,2710622710621
2,108	-52,5030525030523
2,1085	-40,2930402930402
2,109	-35,4090354090353
2,1095	-35,4090354090353
2,11	-15,8730158730158
2,1105	3,66300366300365
2,111	3,66300366300365
2,1115	-1,22100122100122
2,112	3,66300366300365
2,1125	8,54700854700852
2,113	23,1990231990231
2,1135	32,9670329670329
2,114	32,9670329670329
2,1145	37,8510378510377
2,115	47,6190476190475
2,1155	79,3650793650791
2,116	113,553113553113
2,1165	118,437118437118
2,117	108,669108669108
2,1175	74,4810744810742
2,118	47,6190476190475
2,1185	28,083028083028
2,119	13,4310134310134
2,1195	3,66300366300365
2,12	-10,989010989011
2,1205	-10,989010989011
2,121	-15,8730158730158
2,1215	-20,7570207570207
2,122	-20,7570207570207
2,1225	-25,6410256410256
2,123	-40,2930402930402
2,1235	-52,5030525030523
2,124	-52,5030525030523
2,1245	-40,2930402930402
2,125	-30,5250305250304
2,1255	-15,8730158730158
2,126	-10,989010989011
2,1265	-1,22100122100122
2,127	8,54700854700852
2,1275	13,4310134310134
2,128	23,1990231990231
2,1285	23,1990231990231
2,129	32,9670329670329
2,1295	28,083028083028
2,13	28,083028083028
2,1305	23,1990231990231
2,131	23,1990231990231
2,1315	18,3150183150183
2,132	8,54700854700852
2,1325	-6,10500610500608
2,133	-30,5250305250304
2,1335	-57,3870573870572
2,134	-72,0390720390718
2,1345	-67,1550671550669
2,135	-45,177045177045
2,1355	-20,7570207570207
2,136	-10,989010989011
2,1365	3,66300366300365
2,137	18,3150183150183
2,1375	32,9670329670329
2,138	59,8290598290596
2,1385	89,1330891330888
2,139	128,205128205129
2,1395	169,71916971917
2,14	189,255189255189
2,1405	147,741147741148
2,141	64,7130647130645
2,1415	-15,8730158730158
2,142	-76,9230769230767
2,1425	-86,6910866910864
2,143	-72,0390720390718
2,1435	-45,177045177045
2,144	-25,6410256410256
2,1445	-20,7570207570207
2,145	-20,7570207570207
2,1455	-20,7570207570207
2,146	-20,7570207570207
2,1465	-6,10500610500608
2,147	23,1990231990231
2,1475	47,6190476190475
2,148	59,8290598290596
2,1485	42,7350427350426
2,149	8,54700854700852
2,1495	-10,989010989011
2,15	-10,989010989011
2,1505	-10,989010989011
2,151	-10,989010989011
2,1515	-10,989010989011
2,152	-6,10500610500608
2,1525	-6,10500610500608
2,153	13,4310134310134
2,1535	32,9670329670329
2,154	42,7350427350426
2,1545	37,8510378510377
2,155	28,083028083028
2,1555	18,3150183150183
2,156	3,66300366300365
2,1565	-6,10500610500608
2,157	-10,989010989011
2,1575	-10,989010989011
2,158	-15,8730158730158
2,1585	-35,4090354090353
2,159	-52,5030525030523
2,1595	-35,4090354090353
2,16	-25,6410256410256
2,1605	-40,2930402930402
2,161	-62,2710622710621
2,1615	-67,1550671550669
2,162	-67,1550671550669
2,1625	-81,8070818070815
2,163	-86,6910866910864
2,1635	-81,8070818070815
2,164	-62,2710622710621
2,1645	-52,5030525030523
2,165	-35,4090354090353
2,1655	-10,989010989011
2,166	23,1990231990231
2,1665	59,8290598290596
2,167	98,9010989010986
2,1675	108,669108669108
2,168	89,1330891330888
2,1685	79,3650793650791
2,169	69,5970695970694
2,1695	64,7130647130645
2,17	59,8290598290596
2,1705	47,6190476190475
2,171	47,6190476190475
2,1715	47,6190476190475
2,172	47,6190476190475
2,1725	54,9450549450548
2,173	32,9670329670329
2,1735	18,3150183150183
2,174	3,66300366300365
2,1745	-6,10500610500608
2,175	-10,989010989011
2,1755	-1,22100122100122
2,176	-6,10500610500608
2,1765	-10,989010989011
2,177	-15,8730158730158
2,1775	-10,989010989011
2,178	-15,8730158730158
2,1785	-15,8730158730158
2,179	-20,7570207570207
2,1795	-10,989010989011
2,18	-15,8730158730158
2,1805	-20,7570207570207
2,181	-10,989010989011
2,1815	-1,22100122100122
2,182	18,3150183150183
2,1825	28,083028083028
2,183	47,6190476190475
2,1835	74,4810744810742
2,184	84,249084249084
2,1845	69,5970695970694
2,185	47,6190476190475
2,1855	28,083028083028
2,186	28,083028083028
2,1865	59,8290598290596
2,187	69,5970695970694
2,1875	59,8290598290596
2,188	28,083028083028
2,1885	3,66300366300365
2,189	-10,989010989011
2,1895	-15,8730158730158
2,19	-25,6410256410256
2,1905	-30,5250305250304
2,191	-35,4090354090353
2,1915	-57,3870573870572
2,192	-62,2710622710621
2,1925	-62,2710622710621
2,193	-57,3870573870572
2,1935	-52,5030525030523
2,194	-40,2930402930402
2,1945	-20,7570207570207
2,195	-1,22100122100122
2,1955	-1,22100122100122
2,196	-10,989010989011
2,1965	-20,7570207570207
2,197	-15,8730158730158
2,1975	-6,10500610500608
2,198	8,54700854700852
2,1985	18,3150183150183
2,199	3,66300366300365
2,1995	-10,989010989011
2,2	-20,7570207570207
2,2005	-20,7570207570207
2,201	-10,989010989011
2,2015	-6,10500610500608
2,202	3,66300366300365
2,2025	18,3150183150183
2,203	37,8510378510377
2,2035	79,3650793650791
2,204	84,249084249084
2,2045	42,7350427350426
2,205	-10,989010989011
2,2055	-40,2930402930402
2,206	-52,5030525030523
2,2065	-57,3870573870572
2,207	-57,3870573870572
2,2075	-52,5030525030523
2,208	-45,177045177045
2,2085	-30,5250305250304
2,209	-10,989010989011
2,2095	3,66300366300365
2,21	28,083028083028
2,2105	69,5970695970694
2,211	137,973137973138
2,2115	228,327228327228
2,212	264,957264957265
2,2125	218,559218559219
2,213	137,973137973138
2,2135	54,9450549450548
2,214	-6,10500610500608
2,2145	-45,177045177045
2,215	-72,0390720390718
2,2155	-81,8070818070815
2,216	-86,6910866910864
2,2165	-91,5750915750913
2,217	-91,5750915750913
2,2175	-72,0390720390718
2,218	-57,3870573870572
2,2185	-35,4090354090353
2,219	-10,989010989011
2,2195	18,3150183150183
2,22	47,6190476190475
2,2205	79,3650793650791
2,221	108,669108669108
2,2215	123,321123321123
2,222	103,785103785103
2,2225	47,6190476190475
2,223	-15,8730158730158
2,2235	-76,9230769230767
2,224	-101,343101343101
2,2245	-101,343101343101
2,225	-86,6910866910864
2,2255	-72,0390720390718
2,226	-57,3870573870572
2,2265	-40,2930402930402
2,227	-25,6410256410256
2,2275	-10,989010989011
2,228	3,66300366300365
2,2285	23,1990231990231
2,229	64,7130647130645
2,2295	108,669108669108
2,23	159,95115995116
2,2305	174,603174603175
2,231	147,741147741148
2,2315	108,669108669108
2,232	64,7130647130645
2,2325	32,9670329670329
2,233	-6,10500610500608
2,2335	-52,5030525030523
2,234	-111,111111111111
2,2345	-162,393162393163
2,235	-191,697191697192
2,2355	-167,277167277168
2,236	-125,763125763126
2,2365	-96,4590964590961
2,237	-76,9230769230767
2,2375	-52,5030525030523
2,238	-20,7570207570207
2,2385	13,4310134310134
2,239	47,6190476190475
2,2395	89,1330891330888
2,24	103,785103785103
2,2405	84,249084249084
2,241	64,7130647130645
2,2415	47,6190476190475
2,242	28,083028083028
2,2425	13,4310134310134
2,243	-6,10500610500608
2,2435	-10,989010989011
2,244	-10,989010989011
2,2445	-1,22100122100122
2,245	-1,22100122100122
2,2455	-6,10500610500608
2,246	-6,10500610500608
2,2465	8,54700854700852
2,247	23,1990231990231
2,2475	37,8510378510377
2,248	32,9670329670329
2,2485	28,083028083028
2,249	28,083028083028
2,2495	32,9670329670329
2,25	28,083028083028
2,2505	18,3150183150183
2,251	8,54700854700852
2,2515	-10,989010989011
2,252	-30,5250305250304
2,2525	-40,2930402930402
2,253	-40,2930402930402
2,2535	-30,5250305250304
2,254	-15,8730158730158
2,2545	-6,10500610500608
2,255	3,66300366300365
2,2555	13,4310134310134
2,256	8,54700854700852
2,2565	-6,10500610500608
2,257	-10,989010989011
2,2575	-6,10500610500608
2,258	8,54700854700852
2,2585	8,54700854700852
2,259	3,66300366300365
2,2595	-6,10500610500608
2,26	-10,989010989011
2,2605	-10,989010989011
2,261	3,66300366300365
2,2615	18,3150183150183
2,262	32,9670329670329
2,2625	54,9450549450548
2,263	79,3650793650791
2,2635	98,9010989010986
2,264	103,785103785103
2,2645	89,1330891330888
2,265	69,5970695970694
2,2655	28,083028083028
2,266	3,66300366300365
2,2665	-25,6410256410256
2,267	-52,5030525030523
2,2675	-67,1550671550669
2,268	-86,6910866910864
2,2685	-101,343101343101
2,269	-91,5750915750913
2,2695	-57,3870573870572
2,27	-15,8730158730158
2,2705	32,9670329670329
2,271	89,1330891330888
2,2715	137,973137973138
2,272	184,371184371185
2,2725	174,603174603175
2,273	113,553113553113
2,2735	59,8290598290596
2,274	23,1990231990231
2,2745	3,66300366300365
2,275	-10,989010989011
2,2755	-30,5250305250304
2,276	-52,5030525030523
2,2765	-52,5030525030523
2,277	-52,5030525030523
2,2775	-35,4090354090353
2,278	-15,8730158730158
2,2785	3,66300366300365
2,279	18,3150183150183
2,2795	8,54700854700852
2,28	-25,6410256410256
2,2805	-57,3870573870572
2,281	-81,8070818070815
2,2815	-106,227106227106
2,282	-111,111111111111
2,2825	-96,4590964590961
2,283	-40,2930402930402
2,2835	18,3150183150183
2,284	37,8510378510377
2,2845	18,3150183150183
2,285	-10,989010989011
2,2855	-15,8730158730158
2,286	8,54700854700852
2,2865	54,9450549450548
2,287	74,4810744810742
2,2875	64,7130647130645
2,288	28,083028083028
2,2885	-1,22100122100122
2,289	-10,989010989011
2,2895	-20,7570207570207
2,29	-25,6410256410256
2,2905	-20,7570207570207
2,291	-10,989010989011
2,2915	8,54700854700852
2,292	28,083028083028
2,2925	59,8290598290596
2,293	98,9010989010986
2,2935	113,553113553113
2,294	108,669108669108
2,2945	69,5970695970694
2,295	23,1990231990231
2,2955	-10,989010989011
2,296	-25,6410256410256
2,2965	-30,5250305250304
2,297	-30,5250305250304
2,2975	-30,5250305250304
2,298	-25,6410256410256
2,2985	-20,7570207570207
2,299	-15,8730158730158
2,2995	-10,989010989011
2,3	-1,22100122100122
2,3005	3,66300366300365
2,301	-6,10500610500608
2,3015	-6,10500610500608
2,302	-1,22100122100122
2,3025	3,66300366300365
2,303	8,54700854700852
2,3035	8,54700854700852
2,304	8,54700854700852
2,3045	8,54700854700852
2,305	8,54700854700852
2,3055	8,54700854700852
2,306	18,3150183150183
2,3065	18,3150183150183
2,307	23,1990231990231
2,3075	18,3150183150183
2,308	8,54700854700852
2,3085	-1,22100122100122
2,309	-1,22100122100122
2,3095	-6,10500610500608
2,31	-6,10500610500608
2,3105	-6,10500610500608
2,311	-6,10500610500608
2,3115	-10,989010989011
2,312	-10,989010989011
2,3125	-10,989010989011
2,313	-1,22100122100122
2,3135	8,54700854700852
2,314	18,3150183150183
2,3145	8,54700854700852
2,315	-1,22100122100122
2,3155	-1,22100122100122
2,316	3,66300366300365
2,3165	8,54700854700852
2,317	18,3150183150183
2,3175	23,1990231990231
2,318	8,54700854700852
2,3185	-15,8730158730158
2,319	-30,5250305250304
2,3195	-20,7570207570207
2,32	-6,10500610500608
2,3205	42,7350427350426
2,321	74,4810744810742
2,3215	69,5970695970694
2,322	42,7350427350426
2,3225	18,3150183150183
2,323	8,54700854700852
2,3235	8,54700854700852
2,324	8,54700854700852
2,3245	8,54700854700852
2,325	3,66300366300365
2,3255	-10,989010989011
2,326	-35,4090354090353
2,3265	-45,177045177045
2,327	-45,177045177045
2,3275	-30,5250305250304
2,328	-15,8730158730158
2,3285	-10,989010989011
2,329	-6,10500610500608
2,3295	3,66300366300365
2,33	8,54700854700852
2,3305	13,4310134310134
2,331	13,4310134310134
2,3315	18,3150183150183
2,332	18,3150183150183
2,3325	28,083028083028
2,333	37,8510378510377
2,3335	42,7350427350426
2,334	28,083028083028
2,3345	18,3150183150183
2,335	3,66300366300365
2,3355	-10,989010989011
2,336	-6,10500610500608
2,3365	-1,22100122100122
2,337	8,54700854700852
2,3375	8,54700854700852
2,338	3,66300366300365
2,3385	-10,989010989011
2,339	-15,8730158730158
2,3395	-30,5250305250304
2,34	-35,4090354090353
2,3405	-45,177045177045
2,341	-52,5030525030523
2,3415	-30,5250305250304
2,342	-20,7570207570207
2,3425	-10,989010989011
2,343	-1,22100122100122
2,3435	18,3150183150183
2,344	32,9670329670329
2,3445	18,3150183150183
2,345	-6,10500610500608
2,3455	3,66300366300365
2,346	18,3150183150183
2,3465	23,1990231990231
2,347	18,3150183150183
2,3475	18,3150183150183
2,348	18,3150183150183
2,3485	8,54700854700852
2,349	18,3150183150183
2,3495	23,1990231990231
2,35	47,6190476190475
2,3505	89,1330891330888
2,351	155,067155067155
2,3515	233,211233211233
2,352	255,189255189255
2,3525	155,067155067155
2,353	47,6190476190475
2,3535	-6,10500610500608
2,354	-20,7570207570207
2,3545	-30,5250305250304
2,355	-45,177045177045
2,3555	-57,3870573870572
2,356	-67,1550671550669
2,3565	-67,1550671550669
2,357	-67,1550671550669
2,3575	-62,2710622710621
2,358	-57,3870573870572
2,3585	-57,3870573870572
2,359	-52,5030525030523
2,3595	-40,2930402930402
2,36	-30,5250305250304
2,3605	-20,7570207570207
2,361	-10,989010989011
2,3615	-10,989010989011
2,362	-10,989010989011
2,3625	-10,989010989011
2,363	-15,8730158730158
2,3635	-15,8730158730158
2,364	-15,8730158730158
2,3645	-20,7570207570207
2,365	-15,8730158730158
2,3655	-10,989010989011
2,366	-10,989010989011
2,3665	-10,989010989011
2,367	-6,10500610500608
2,3675	-1,22100122100122
2,368	8,54700854700852
2,3685	13,4310134310134
2,369	13,4310134310134
2,3695	18,3150183150183
2,37	13,4310134310134
2,3705	18,3150183150183
2,371	18,3150183150183
2,3715	18,3150183150183
2,372	18,3150183150183
2,3725	18,3150183150183
2,373	18,3150183150183
2,3735	8,54700854700852
2,374	8,54700854700852
2,3745	8,54700854700852
2,375	13,4310134310134
2,3755	13,4310134310134
2,376	13,4310134310134
2,3765	8,54700854700852
2,377	8,54700854700852
2,3775	8,54700854700852
2,378	13,4310134310134
2,3785	23,1990231990231
2,379	42,7350427350426
2,3795	59,8290598290596
2,38	47,6190476190475
2,3805	42,7350427350426
2,381	28,083028083028
2,3815	8,54700854700852
2,382	3,66300366300365
2,3825	-1,22100122100122
2,383	-6,10500610500608
2,3835	-30,5250305250304
2,384	-72,0390720390718
2,3845	-106,227106227106
2,385	-111,111111111111
2,3855	-101,343101343101
2,386	-81,8070818070815
2,3865	-57,3870573870572
2,387	-20,7570207570207
2,3875	-6,10500610500608
2,388	-6,10500610500608
2,3885	-10,989010989011
2,389	3,66300366300365
2,3895	37,8510378510377
2,39	94,0170940170937
2,3905	147,741147741148
2,391	169,71916971917
2,3915	133,089133089133
2,392	74,4810744810742
2,3925	23,1990231990231
2,393	-35,4090354090353
2,3935	-62,2710622710621
2,394	-67,1550671550669
2,3945	-40,2930402930402
2,395	8,54700854700852
2,3955	47,6190476190475
2,396	54,9450549450548
2,3965	32,9670329670329
2,397	18,3150183150183
2,3975	18,3150183150183
2,398	28,083028083028
2,3985	42,7350427350426
2,399	59,8290598290596
2,3995	94,0170940170937
2,4	118,437118437118
2,4005	108,669108669108
2,401	74,4810744810742
2,4015	42,7350427350426
2,402	13,4310134310134
2,4025	-6,10500610500608
2,403	-15,8730158730158
2,4035	-30,5250305250304
2,404	-40,2930402930402
2,4045	-52,5030525030523
2,405	-62,2710622710621
2,4055	-81,8070818070815
2,406	-101,343101343101
2,4065	-106,227106227106
2,407	-101,343101343101
2,4075	-91,5750915750913
2,408	-72,0390720390718
2,4085	-45,177045177045
2,409	-15,8730158730158
2,4095	3,66300366300365
2,41	18,3150183150183
2,4105	23,1990231990231
2,411	23,1990231990231
2,4115	23,1990231990231
2,412	32,9670329670329
2,4125	47,6190476190475
2,413	64,7130647130645
2,4135	64,7130647130645
2,414	47,6190476190475
2,4145	28,083028083028
2,415	8,54700854700852
2,4155	-6,10500610500608
2,416	-10,989010989011
2,4165	-10,989010989011
2,417	-1,22100122100122
2,4175	3,66300366300365
2,418	-6,10500610500608
2,4185	-20,7570207570207
2,419	-20,7570207570207
2,4195	-20,7570207570207
2,42	-10,989010989011
2,4205	3,66300366300365
2,421	18,3150183150183
2,4215	32,9670329670329
2,422	37,8510378510377
2,4225	28,083028083028
2,423	18,3150183150183
2,4235	-1,22100122100122
2,424	-15,8730158730158
2,4245	-15,8730158730158
2,425	-10,989010989011
2,4255	-10,989010989011
2,426	3,66300366300365
2,4265	3,66300366300365
2,427	3,66300366300365
2,4275	-10,989010989011
2,428	-6,10500610500608
2,4285	8,54700854700852
2,429	18,3150183150183
2,4295	18,3150183150183
2,43	28,083028083028
2,4305	47,6190476190475
2,431	84,249084249084
2,4315	113,553113553113
2,432	113,553113553113
2,4325	98,9010989010986
2,433	64,7130647130645
2,4335	28,083028083028
2,434	-6,10500610500608
2,4345	-30,5250305250304
2,435	-40,2930402930402
2,4355	-15,8730158730158
2,436	-6,10500610500608
2,4365	-10,989010989011
2,437	-40,2930402930402
2,4375	-52,5030525030523
2,438	-67,1550671550669
2,4385	-72,0390720390718
2,439	-57,3870573870572
2,4395	-40,2930402930402
2,44	-25,6410256410256
2,4405	-20,7570207570207
2,441	-10,989010989011
2,4415	-10,989010989011
2,442	-1,22100122100122
2,4425	18,3150183150183
2,443	23,1990231990231
2,4435	23,1990231990231
2,444	23,1990231990231
2,4445	18,3150183150183
2,445	18,3150183150183
2,4455	8,54700854700852
2,446	-1,22100122100122
2,4465	-1,22100122100122
2,447	8,54700854700852
2,4475	13,4310134310134
2,448	3,66300366300365
2,4485	-20,7570207570207
2,449	-52,5030525030523
2,4495	-62,2710622710621
2,45	-57,3870573870572
2,4505	-67,1550671550669
2,451	-62,2710622710621
2,4515	-45,177045177045
2,452	-30,5250305250304
2,4525	-10,989010989011
2,453	23,1990231990231
2,4535	84,249084249084
2,454	169,71916971917
2,4545	208,791208791209
2,455	189,255189255189
2,4555	137,973137973138
2,456	69,5970695970694
2,4565	23,1990231990231
2,457	-10,989010989011
2,4575	-25,6410256410256
2,458	-30,5250305250304
2,4585	-25,6410256410256
2,459	-25,6410256410256
2,4595	-25,6410256410256
2,46	-10,989010989011
2,4605	13,4310134310134
2,461	47,6190476190475
2,4615	69,5970695970694
2,462	64,7130647130645
2,4625	37,8510378510377
2,463	3,66300366300365
2,4635	-20,7570207570207
2,464	-40,2930402930402
2,4645	-45,177045177045
2,465	-45,177045177045
2,4655	-35,4090354090353
2,466	-30,5250305250304
2,4665	-30,5250305250304
2,467	-25,6410256410256
2,4675	-25,6410256410256
2,468	-25,6410256410256
2,4685	-25,6410256410256
2,469	-10,989010989011
2,4695	3,66300366300365
2,47	18,3150183150183
2,4705	18,3150183150183
2,471	13,4310134310134
2,4715	18,3150183150183
2,472	23,1990231990231
2,4725	23,1990231990231
2,473	8,54700854700852
2,4735	8,54700854700852
2,474	8,54700854700852
2,4745	18,3150183150183
2,475	8,54700854700852
2,4755	-1,22100122100122
2,476	-10,989010989011
2,4765	-10,989010989011
2,477	-1,22100122100122
2,4775	3,66300366300365
2,478	13,4310134310134
2,4785	13,4310134310134
2,479	13,4310134310134
2,4795	18,3150183150183
2,48	23,1990231990231
2,4805	28,083028083028
2,481	23,1990231990231
2,4815	18,3150183150183
2,482	8,54700854700852
2,4825	8,54700854700852
2,483	3,66300366300365
2,4835	-10,989010989011
2,484	-10,989010989011
2,4845	-25,6410256410256
2,485	-52,5030525030523
2,4855	-72,0390720390718
2,486	-67,1550671550669
2,4865	-45,177045177045
2,487	-15,8730158730158
2,4875	3,66300366300365
2,488	8,54700854700852
2,4885	8,54700854700852
2,489	3,66300366300365
2,4895	-20,7570207570207
2,49	-40,2930402930402
2,4905	-45,177045177045
2,491	-52,5030525030523
2,4915	-45,177045177045
2,492	-40,2930402930402
2,4925	-52,5030525030523
2,493	-45,177045177045
2,4935	-30,5250305250304
2,494	-6,10500610500608
2,4945	28,083028083028
2,495	79,3650793650791
2,4955	159,95115995116
2,496	228,327228327228
2,4965	233,211233211233
2,497	179,48717948718
2,4975	108,669108669108
2,498	74,4810744810742
2,4985	69,5970695970694
2,499	98,9010989010986
2,4995	128,205128205129
2,5	133,089133089133
2,5005	108,669108669108
2,501	84,249084249084
2,5015	47,6190476190475
2,502	3,66300366300365
2,5025	-20,7570207570207
2,503	-40,2930402930402
2,5035	-72,0390720390718
2,504	-91,5750915750913
2,5045	-111,111111111111
2,505	-111,111111111111
2,5055	-101,343101343101
2,506	-96,4590964590961
2,5065	-106,227106227106
2,507	-115,995115995116
2,5075	-106,227106227106
2,508	-96,4590964590961
2,5085	-81,8070818070815
2,509	-76,9230769230767
2,5095	-57,3870573870572
2,51	-40,2930402930402
2,5105	-15,8730158730158
2,511	13,4310134310134
2,5115	32,9670329670329
2,512	42,7350427350426
2,5125	28,083028083028
2,513	23,1990231990231
2,5135	23,1990231990231
2,514	23,1990231990231
2,5145	23,1990231990231
2,515	23,1990231990231
2,5155	18,3150183150183
2,516	18,3150183150183
2,5165	18,3150183150183
2,517	23,1990231990231
2,5175	23,1990231990231
2,518	23,1990231990231
2,5185	23,1990231990231
2,519	18,3150183150183
2,5195	18,3150183150183
2,52	18,3150183150183
