0	-1,22100122100122
0,0005	-1,22100122100122
0,001	-6,10500610500608
0,0015	-10,989010989011
0,002	-6,10500610500608
0,0025	-1,22100122100122
0,003	3,66300366300365
0,0035	8,54700854700852
0,004	13,4310134310134
0,0045	8,54700854700852
0,005	8,54700854700852
0,0055	3,66300366300365
0,006	3,66300366300365
0,0065	-1,22100122100122
0,007	-1,22100122100122
0,0075	-1,22100122100122
0,008	3,66300366300365
0,0085	3,66300366300365
0,009	8,54700854700852
0,0095	3,66300366300365
0,01	8,54700854700852
0,0105	8,54700854700852
0,011	8,54700854700852
0,0115	3,66300366300365
0,012	-1,22100122100122
0,0125	-6,10500610500608
0,013	-1,22100122100122
0,0135	-1,22100122100122
0,014	-1,22100122100122
0,0145	-1,22100122100122
0,015	-6,10500610500608
0,0155	-1,22100122100122
0,016	3,66300366300365
0,0165	8,54700854700852
0,017	8,54700854700852
0,0175	18,3150183150183
0,018	28,083028083028
0,0185	32,9670329670329
0,019	32,9670329670329
0,0195	23,1990231990231
0,02	18,3150183150183
0,0205	8,54700854700852
0,021	8,54700854700852
0,0215	-1,22100122100122
0,022	-10,989010989011
0,0225	-15,8730158730158
0,023	-20,7570207570207
0,0235	-15,8730158730158
0,024	-15,8730158730158
0,0245	-15,8730158730158
0,025	-15,8730158730158
0,0255	-10,989010989011
0,026	-1,22100122100122
0,0265	8,54700854700852
0,027	8,54700854700852
0,0275	3,66300366300365
0,028	3,66300366300365
0,0285	3,66300366300365
0,029	3,66300366300365
0,0295	8,54700854700852
0,03	8,54700854700852
0,0305	18,3150183150183
0,031	13,4310134310134
0,0315	8,54700854700852
0,032	8,54700854700852
0,0325	8,54700854700852
0,033	8,54700854700852
0,0335	8,54700854700852
0,034	8,54700854700852
0,0345	3,66300366300365
0,035	8,54700854700852
0,0355	3,66300366300365
0,036	-6,10500610500608
0,0365	-10,989010989011
0,037	-10,989010989011
0,0375	-10,989010989011
0,038	-6,10500610500608
0,0385	3,66300366300365
0,039	8,54700854700852
0,0395	13,4310134310134
0,04	32,9670329670329
0,0405	47,6190476190475
0,041	59,8290598290596
0,0415	42,7350427350426
0,042	23,1990231990231
0,0425	13,4310134310134
0,043	8,54700854700852
0,0435	8,54700854700852
0,044	3,66300366300365
0,0445	3,66300366300365
0,045	3,66300366300365
0,0455	3,66300366300365
0,046	-1,22100122100122
0,0465	-6,10500610500608
0,047	-10,989010989011
0,0475	-10,989010989011
0,048	-15,8730158730158
0,0485	-15,8730158730158
0,049	-10,989010989011
0,0495	-6,10500610500608
0,05	3,66300366300365
0,0505	23,1990231990231
0,051	28,083028083028
0,0515	32,9670329670329
0,052	28,083028083028
0,0525	28,083028083028
0,053	8,54700854700852
0,0535	-1,22100122100122
0,054	-10,989010989011
0,0545	-15,8730158730158
0,055	-25,6410256410256
0,0555	-30,5250305250304
0,056	-35,4090354090353
0,0565	-35,4090354090353
0,057	-30,5250305250304
0,0575	-35,4090354090353
0,058	-30,5250305250304
0,0585	-15,8730158730158
0,059	-1,22100122100122
0,0595	18,3150183150183
0,06	28,083028083028
0,0605	32,9670329670329
0,061	42,7350427350426
0,0615	37,8510378510377
0,062	42,7350427350426
0,0625	37,8510378510377
0,063	42,7350427350426
0,0635	37,8510378510377
0,064	32,9670329670329
0,0645	13,4310134310134
0,065	-1,22100122100122
0,0655	-10,989010989011
0,066	-15,8730158730158
0,0665	-20,7570207570207
0,067	-20,7570207570207
0,0675	-25,6410256410256
0,068	-30,5250305250304
0,0685	-30,5250305250304
0,069	-25,6410256410256
0,0695	-20,7570207570207
0,07	-20,7570207570207
0,0705	-10,989010989011
0,071	-6,10500610500608
0,0715	8,54700854700852
0,072	18,3150183150183
0,0725	28,083028083028
0,073	28,083028083028
0,0735	32,9670329670329
0,074	28,083028083028
0,0745	32,9670329670329
0,075	37,8510378510377
0,0755	37,8510378510377
0,076	28,083028083028
0,0765	18,3150183150183
0,077	13,4310134310134
0,0775	8,54700854700852
0,078	8,54700854700852
0,0785	8,54700854700852
0,079	3,66300366300365
0,0795	8,54700854700852
0,08	3,66300366300365
0,0805	3,66300366300365
0,081	3,66300366300365
0,0815	3,66300366300365
0,082	3,66300366300365
0,0825	8,54700854700852
0,083	8,54700854700852
0,0835	8,54700854700852
0,084	3,66300366300365
0,0845	3,66300366300365
0,085	3,66300366300365
0,0855	3,66300366300365
0,086	-1,22100122100122
0,0865	3,66300366300365
0,087	3,66300366300365
0,0875	3,66300366300365
0,088	3,66300366300365
0,0885	-1,22100122100122
0,089	3,66300366300365
0,0895	3,66300366300365
0,09	3,66300366300365
0,0905	3,66300366300365
0,091	3,66300366300365
0,0915	3,66300366300365
0,092	3,66300366300365
0,0925	3,66300366300365
0,093	3,66300366300365
0,0935	-1,22100122100122
0,094	-1,22100122100122
0,0945	3,66300366300365
0,095	3,66300366300365
0,0955	3,66300366300365
0,096	3,66300366300365
0,0965	-1,22100122100122
0,097	-1,22100122100122
0,0975	-1,22100122100122
0,098	-1,22100122100122
0,0985	-1,22100122100122
0,099	-1,22100122100122
0,0995	8,54700854700852
0,1	13,4310134310134
0,1005	13,4310134310134
0,101	8,54700854700852
0,1015	3,66300366300365
0,102	3,66300366300365
0,1025	3,66300366300365
0,103	3,66300366300365
0,1035	3,66300366300365
0,104	8,54700854700852
0,1045	3,66300366300365
0,105	3,66300366300365
0,1055	3,66300366300365
0,106	3,66300366300365
0,1065	-1,22100122100122
0,107	-1,22100122100122
0,1075	-1,22100122100122
0,108	-1,22100122100122
0,1085	-1,22100122100122
0,109	-1,22100122100122
0,1095	3,66300366300365
0,11	3,66300366300365
0,1105	3,66300366300365
0,111	3,66300366300365
0,1115	3,66300366300365
0,112	3,66300366300365
0,1125	3,66300366300365
0,113	3,66300366300365
0,1135	8,54700854700852
0,114	3,66300366300365
0,1145	8,54700854700852
0,115	8,54700854700852
0,1155	3,66300366300365
0,116	3,66300366300365
0,1165	3,66300366300365
0,117	3,66300366300365
0,1175	3,66300366300365
0,118	3,66300366300365
0,1185	3,66300366300365
0,119	3,66300366300365
0,1195	8,54700854700852
0,12	3,66300366300365
0,1205	3,66300366300365
0,121	8,54700854700852
0,1215	8,54700854700852
0,122	8,54700854700852
0,1225	3,66300366300365
0,123	3,66300366300365
0,1235	3,66300366300365
0,124	3,66300366300365
0,1245	3,66300366300365
0,125	3,66300366300365
0,1255	3,66300366300365
0,126	3,66300366300365
0,1265	3,66300366300365
0,127	3,66300366300365
0,1275	3,66300366300365
0,128	3,66300366300365
0,1285	-1,22100122100122
0,129	3,66300366300365
0,1295	3,66300366300365
0,13	3,66300366300365
0,1305	3,66300366300365
0,131	3,66300366300365
0,1315	3,66300366300365
0,132	3,66300366300365
0,1325	3,66300366300365
0,133	3,66300366300365
0,1335	3,66300366300365
0,134	3,66300366300365
0,1345	3,66300366300365
0,135	3,66300366300365
0,1355	3,66300366300365
0,136	3,66300366300365
0,1365	3,66300366300365
0,137	3,66300366300365
0,1375	3,66300366300365
0,138	3,66300366300365
0,1385	3,66300366300365
0,139	3,66300366300365
0,1395	-1,22100122100122
0,14	3,66300366300365
0,1405	3,66300366300365
0,141	3,66300366300365
0,1415	8,54700854700852
0,142	8,54700854700852
0,1425	8,54700854700852
0,143	8,54700854700852
0,1435	8,54700854700852
0,144	8,54700854700852
0,1445	3,66300366300365
0,145	3,66300366300365
0,1455	3,66300366300365
0,146	3,66300366300365
0,1465	3,66300366300365
0,147	8,54700854700852
0,1475	13,4310134310134
0,148	8,54700854700852
0,1485	3,66300366300365
0,149	-1,22100122100122
0,1495	-10,989010989011
0,15	-6,10500610500608
0,1505	-6,10500610500608
0,151	-6,10500610500608
0,1515	-1,22100122100122
0,152	3,66300366300365
0,1525	3,66300366300365
0,153	8,54700854700852
0,1535	8,54700854700852
0,154	3,66300366300365
0,1545	3,66300366300365
0,155	-1,22100122100122
0,1555	-1,22100122100122
0,156	-1,22100122100122
0,1565	3,66300366300365
0,157	3,66300366300365
0,1575	8,54700854700852
0,158	8,54700854700852
0,1585	8,54700854700852
0,159	8,54700854700852
0,1595	8,54700854700852
0,16	8,54700854700852
0,1605	13,4310134310134
0,161	18,3150183150183
0,1615	23,1990231990231
0,162	18,3150183150183
0,1625	13,4310134310134
0,163	3,66300366300365
0,1635	8,54700854700852
0,164	8,54700854700852
0,1645	8,54700854700852
0,165	8,54700854700852
0,1655	8,54700854700852
0,166	3,66300366300365
0,1665	3,66300366300365
0,167	-1,22100122100122
0,1675	-6,10500610500608
0,168	-6,10500610500608
0,1685	-10,989010989011
0,169	-10,989010989011
0,1695	-10,989010989011
0,17	-10,989010989011
0,1705	-10,989010989011
0,171	-15,8730158730158
0,1715	-15,8730158730158
0,172	-10,989010989011
0,1725	-6,10500610500608
0,173	3,66300366300365
0,1735	8,54700854700852
0,174	8,54700854700852
0,1745	8,54700854700852
0,175	8,54700854700852
0,1755	8,54700854700852
0,176	8,54700854700852
0,1765	8,54700854700852
0,177	8,54700854700852
0,1775	8,54700854700852
0,178	8,54700854700852
0,1785	8,54700854700852
0,179	8,54700854700852
0,1795	8,54700854700852
0,18	8,54700854700852
0,1805	8,54700854700852
0,181	8,54700854700852
0,1815	8,54700854700852
0,182	8,54700854700852
0,1825	8,54700854700852
0,183	8,54700854700852
0,1835	3,66300366300365
0,184	-1,22100122100122
0,1845	3,66300366300365
0,185	3,66300366300365
0,1855	3,66300366300365
0,186	8,54700854700852
0,1865	23,1990231990231
0,187	28,083028083028
0,1875	37,8510378510377
0,188	32,9670329670329
0,1885	28,083028083028
0,189	23,1990231990231
0,1895	23,1990231990231
0,19	18,3150183150183
0,1905	3,66300366300365
0,191	-1,22100122100122
0,1915	-10,989010989011
0,192	-30,5250305250304
0,1925	-45,177045177045
0,193	-50,0610500610499
0,1935	-50,0610500610499
0,194	-45,177045177045
0,1945	-30,5250305250304
0,195	-15,8730158730158
0,1955	-10,989010989011
0,196	-6,10500610500608
0,1965	-6,10500610500608
0,197	-1,22100122100122
0,1975	3,66300366300365
0,198	8,54700854700852
0,1985	8,54700854700852
0,199	18,3150183150183
0,1995	18,3150183150183
0,2	23,1990231990231
0,2005	23,1990231990231
0,201	23,1990231990231
0,2015	23,1990231990231
0,202	18,3150183150183
0,2025	18,3150183150183
0,203	18,3150183150183
0,2035	18,3150183150183
0,204	18,3150183150183
0,2045	18,3150183150183
0,205	8,54700854700852
0,2055	-1,22100122100122
0,206	-6,10500610500608
0,2065	-6,10500610500608
0,207	-1,22100122100122
0,2075	3,66300366300365
0,208	3,66300366300365
0,2085	8,54700854700852
0,209	23,1990231990231
0,2095	42,7350427350426
0,21	47,6190476190475
0,2105	37,8510378510377
0,211	18,3150183150183
0,2115	8,54700854700852
0,212	3,66300366300365
0,2125	-1,22100122100122
0,213	-1,22100122100122
0,2135	3,66300366300365
0,214	8,54700854700852
0,2145	3,66300366300365
0,215	3,66300366300365
0,2155	-1,22100122100122
0,216	-6,10500610500608
0,2165	-1,22100122100122
0,217	-6,10500610500608
0,2175	-6,10500610500608
0,218	-6,10500610500608
0,2185	-6,10500610500608
0,219	-1,22100122100122
0,2195	-1,22100122100122
0,22	-1,22100122100122
0,2205	-1,22100122100122
0,221	-6,10500610500608
0,2215	-1,22100122100122
0,222	-1,22100122100122
0,2225	3,66300366300365
0,223	3,66300366300365
0,2235	3,66300366300365
0,224	-1,22100122100122
0,2245	-1,22100122100122
0,225	3,66300366300365
0,2255	3,66300366300365
0,226	-1,22100122100122
0,2265	-10,989010989011
0,227	-10,989010989011
0,2275	3,66300366300365
0,228	8,54700854700852
0,2285	18,3150183150183
0,229	13,4310134310134
0,2295	13,4310134310134
0,23	3,66300366300365
0,2305	3,66300366300365
0,231	3,66300366300365
0,2315	3,66300366300365
0,232	3,66300366300365
0,2325	-1,22100122100122
0,233	3,66300366300365
0,2335	3,66300366300365
0,234	3,66300366300365
0,2345	3,66300366300365
0,235	3,66300366300365
0,2355	8,54700854700852
0,236	18,3150183150183
0,2365	18,3150183150183
0,237	8,54700854700852
0,2375	3,66300366300365
0,238	3,66300366300365
0,2385	3,66300366300365
0,239	3,66300366300365
0,2395	3,66300366300365
0,24	3,66300366300365
0,2405	-1,22100122100122
0,241	-6,10500610500608
0,2415	-6,10500610500608
0,242	-10,989010989011
0,2425	-10,989010989011
0,243	-10,989010989011
0,2435	-10,989010989011
0,244	-1,22100122100122
0,2445	3,66300366300365
0,245	8,54700854700852
0,2455	8,54700854700852
0,246	13,4310134310134
0,2465	8,54700854700852
0,247	8,54700854700852
0,2475	3,66300366300365
0,248	3,66300366300365
0,2485	8,54700854700852
0,249	13,4310134310134
0,2495	18,3150183150183
0,25	18,3150183150183
0,2505	18,3150183150183
0,251	13,4310134310134
0,2515	8,54700854700852
0,252	3,66300366300365
0,2525	3,66300366300365
0,253	3,66300366300365
0,2535	-1,22100122100122
0,254	-1,22100122100122
0,2545	3,66300366300365
0,255	-1,22100122100122
0,2555	-6,10500610500608
0,256	-1,22100122100122
0,2565	-1,22100122100122
0,257	-1,22100122100122
0,2575	3,66300366300365
0,258	8,54700854700852
0,2585	8,54700854700852
0,259	8,54700854700852
0,2595	8,54700854700852
0,26	3,66300366300365
0,2605	3,66300366300365
0,261	8,54700854700852
0,2615	8,54700854700852
0,262	3,66300366300365
0,2625	3,66300366300365
0,263	3,66300366300365
0,2635	3,66300366300365
0,264	3,66300366300365
0,2645	3,66300366300365
0,265	3,66300366300365
0,2655	3,66300366300365
0,266	3,66300366300365
0,2665	3,66300366300365
0,267	3,66300366300365
0,2675	3,66300366300365
0,268	3,66300366300365
0,2685	8,54700854700852
0,269	3,66300366300365
0,2695	3,66300366300365
0,27	3,66300366300365
0,2705	3,66300366300365
0,271	3,66300366300365
0,2715	3,66300366300365
0,272	3,66300366300365
0,2725	3,66300366300365
0,273	3,66300366300365
0,2735	3,66300366300365
0,274	3,66300366300365
0,2745	3,66300366300365
0,275	3,66300366300365
0,2755	3,66300366300365
0,276	3,66300366300365
0,2765	3,66300366300365
0,277	3,66300366300365
0,2775	3,66300366300365
0,278	3,66300366300365
0,2785	3,66300366300365
0,279	-1,22100122100122
0,2795	-1,22100122100122
0,28	3,66300366300365
0,2805	3,66300366300365
0,281	3,66300366300365
0,2815	8,54700854700852
0,282	3,66300366300365
0,2825	-1,22100122100122
0,283	-1,22100122100122
0,2835	-1,22100122100122
0,284	3,66300366300365
0,2845	3,66300366300365
0,285	3,66300366300365
0,2855	3,66300366300365
0,286	8,54700854700852
0,2865	8,54700854700852
0,287	8,54700854700852
0,2875	3,66300366300365
0,288	3,66300366300365
0,2885	8,54700854700852
0,289	8,54700854700852
0,2895	13,4310134310134
0,29	8,54700854700852
0,2905	8,54700854700852
0,291	3,66300366300365
0,2915	3,66300366300365
0,292	-1,22100122100122
0,2925	-1,22100122100122
0,293	3,66300366300365
0,2935	8,54700854700852
0,294	8,54700854700852
0,2945	3,66300366300365
0,295	3,66300366300365
0,2955	3,66300366300365
0,296	3,66300366300365
0,2965	3,66300366300365
0,297	3,66300366300365
0,2975	3,66300366300365
0,298	3,66300366300365
0,2985	3,66300366300365
0,299	3,66300366300365
0,2995	3,66300366300365
0,3	3,66300366300365
0,3005	3,66300366300365
0,301	8,54700854700852
0,3015	3,66300366300365
0,302	3,66300366300365
0,3025	-1,22100122100122
0,303	-1,22100122100122
0,3035	-1,22100122100122
0,304	3,66300366300365
0,3045	3,66300366300365
0,305	3,66300366300365
0,3055	3,66300366300365
0,306	3,66300366300365
0,3065	3,66300366300365
0,307	3,66300366300365
0,3075	3,66300366300365
0,308	3,66300366300365
0,3085	3,66300366300365
0,309	3,66300366300365
0,3095	3,66300366300365
0,31	8,54700854700852
0,3105	18,3150183150183
0,311	18,3150183150183
0,3115	13,4310134310134
0,312	8,54700854700852
0,3125	8,54700854700852
0,313	3,66300366300365
0,3135	3,66300366300365
0,314	-1,22100122100122
0,3145	-1,22100122100122
0,315	3,66300366300365
0,3155	8,54700854700852
0,316	3,66300366300365
0,3165	8,54700854700852
0,317	3,66300366300365
0,3175	3,66300366300365
0,318	-1,22100122100122
0,3185	-1,22100122100122
0,319	3,66300366300365
0,3195	3,66300366300365
0,32	3,66300366300365
0,3205	-1,22100122100122
0,321	-1,22100122100122
0,3215	-1,22100122100122
0,322	-6,10500610500608
0,3225	-6,10500610500608
0,323	-1,22100122100122
0,3235	3,66300366300365
0,324	3,66300366300365
0,3245	8,54700854700852
0,325	18,3150183150183
0,3255	23,1990231990231
0,326	23,1990231990231
0,3265	18,3150183150183
0,327	8,54700854700852
0,3275	3,66300366300365
0,328	3,66300366300365
0,3285	8,54700854700852
0,329	18,3150183150183
0,3295	23,1990231990231
0,33	13,4310134310134
0,3305	13,4310134310134
0,331	13,4310134310134
0,3315	8,54700854700852
0,332	-6,10500610500608
0,3325	-15,8730158730158
0,333	-20,7570207570207
0,3335	-25,6410256410256
0,334	-30,5250305250304
0,3345	-40,2930402930402
0,335	-40,2930402930402
0,3355	-30,5250305250304
0,336	-20,7570207570207
0,3365	-10,989010989011
0,337	-6,10500610500608
0,3375	8,54700854700852
0,338	18,3150183150183
0,3385	23,1990231990231
0,339	23,1990231990231
0,3395	23,1990231990231
0,34	23,1990231990231
0,3405	18,3150183150183
0,341	3,66300366300365
0,3415	-6,10500610500608
0,342	-1,22100122100122
0,3425	3,66300366300365
0,343	13,4310134310134
0,3435	23,1990231990231
0,344	23,1990231990231
0,3445	37,8510378510377
0,345	52,5030525030523
0,3455	64,7130647130645
0,346	52,5030525030523
0,3465	32,9670329670329
0,347	18,3150183150183
0,3475	3,66300366300365
0,348	-6,10500610500608
0,3485	-6,10500610500608
0,349	-6,10500610500608
0,3495	-10,989010989011
0,35	-10,989010989011
0,3505	-6,10500610500608
0,351	-6,10500610500608
0,3515	-6,10500610500608
0,352	-6,10500610500608
0,3525	-1,22100122100122
0,353	-1,22100122100122
0,3535	-1,22100122100122
0,354	3,66300366300365
0,3545	-1,22100122100122
0,355	3,66300366300365
0,3555	3,66300366300365
0,356	3,66300366300365
0,3565	3,66300366300365
0,357	3,66300366300365
0,3575	3,66300366300365
0,358	3,66300366300365
0,3585	3,66300366300365
0,359	-1,22100122100122
0,3595	-1,22100122100122
0,36	3,66300366300365
0,3605	3,66300366300365
0,361	8,54700854700852
0,3615	8,54700854700852
0,362	8,54700854700852
0,3625	8,54700854700852
0,363	8,54700854700852
0,3635	8,54700854700852
0,364	3,66300366300365
0,3645	3,66300366300365
0,365	-1,22100122100122
0,3655	3,66300366300365
0,366	8,54700854700852
0,3665	23,1990231990231
0,367	23,1990231990231
0,3675	23,1990231990231
0,368	23,1990231990231
0,3685	18,3150183150183
0,369	8,54700854700852
0,3695	3,66300366300365
0,37	-6,10500610500608
0,3705	-10,989010989011
0,371	-15,8730158730158
0,3715	-20,7570207570207
0,372	-30,5250305250304
0,3725	-35,4090354090353
0,373	-35,4090354090353
0,3735	-30,5250305250304
0,374	-20,7570207570207
0,3745	-10,989010989011
0,375	-6,10500610500608
0,3755	-1,22100122100122
0,376	3,66300366300365
0,3765	13,4310134310134
0,377	23,1990231990231
0,3775	23,1990231990231
0,378	28,083028083028
0,3785	28,083028083028
0,379	28,083028083028
0,3795	28,083028083028
0,38	28,083028083028
0,3805	23,1990231990231
0,381	23,1990231990231
0,3815	13,4310134310134
0,382	8,54700854700852
0,3825	3,66300366300365
0,383	3,66300366300365
0,3835	3,66300366300365
0,384	8,54700854700852
0,3845	8,54700854700852
0,385	3,66300366300365
0,3855	3,66300366300365
0,386	-1,22100122100122
0,3865	3,66300366300365
0,387	3,66300366300365
0,3875	3,66300366300365
0,388	3,66300366300365
0,3885	3,66300366300365
0,389	8,54700854700852
0,3895	8,54700854700852
0,39	8,54700854700852
0,3905	3,66300366300365
0,391	3,66300366300365
0,3915	8,54700854700852
0,392	13,4310134310134
0,3925	18,3150183150183
0,393	18,3150183150183
0,3935	18,3150183150183
0,394	8,54700854700852
0,3945	3,66300366300365
0,395	-1,22100122100122
0,3955	-6,10500610500608
0,396	-10,989010989011
0,3965	-10,989010989011
0,397	-10,989010989011
0,3975	-10,989010989011
0,398	-10,989010989011
0,3985	-10,989010989011
0,399	-10,989010989011
0,3995	-10,989010989011
0,4	-10,989010989011
0,4005	-6,10500610500608
0,401	-6,10500610500608
0,4015	-6,10500610500608
0,402	-6,10500610500608
0,4025	-1,22100122100122
0,403	3,66300366300365
0,4035	3,66300366300365
0,404	8,54700854700852
0,4045	13,4310134310134
0,405	18,3150183150183
0,4055	18,3150183150183
0,406	18,3150183150183
0,4065	13,4310134310134
0,407	3,66300366300365
0,4075	8,54700854700852
0,408	23,1990231990231
0,4085	28,083028083028
0,409	32,9670329670329
0,4095	28,083028083028
0,41	28,083028083028
0,4105	23,1990231990231
0,411	18,3150183150183
0,4115	3,66300366300365
0,412	3,66300366300365
0,4125	-1,22100122100122
0,413	-6,10500610500608
0,4135	-10,989010989011
0,414	-10,989010989011
0,4145	-10,989010989011
0,415	-10,989010989011
0,4155	-10,989010989011
0,416	-20,7570207570207
0,4165	-20,7570207570207
0,417	-10,989010989011
0,4175	-6,10500610500608
0,418	3,66300366300365
0,4185	3,66300366300365
0,419	8,54700854700852
0,4195	8,54700854700852
0,42	8,54700854700852
0,4205	8,54700854700852
0,421	13,4310134310134
0,4215	23,1990231990231
0,422	28,083028083028
0,4225	32,9670329670329
0,423	37,8510378510377
0,4235	32,9670329670329
0,424	28,083028083028
0,4245	18,3150183150183
0,425	8,54700854700852
0,4255	-6,10500610500608
0,426	-10,989010989011
0,4265	-20,7570207570207
0,427	-30,5250305250304
0,4275	-45,177045177045
0,428	-50,0610500610499
0,4285	-45,177045177045
0,429	-30,5250305250304
0,4295	-10,989010989011
0,43	3,66300366300365
0,4305	18,3150183150183
0,431	23,1990231990231
0,4315	23,1990231990231
0,432	23,1990231990231
0,4325	28,083028083028
0,433	23,1990231990231
0,4335	23,1990231990231
0,434	13,4310134310134
0,4345	13,4310134310134
0,435	8,54700854700852
0,4355	3,66300366300365
0,436	3,66300366300365
0,4365	-1,22100122100122
0,437	-1,22100122100122
0,4375	-6,10500610500608
0,438	-10,989010989011
0,4385	-10,989010989011
0,439	-10,989010989011
0,4395	-6,10500610500608
0,44	-1,22100122100122
0,4405	3,66300366300365
0,441	13,4310134310134
0,4415	32,9670329670329
0,442	52,5030525030523
0,4425	59,8290598290596
0,443	47,6190476190475
0,4435	23,1990231990231
0,444	8,54700854700852
0,4445	3,66300366300365
0,445	3,66300366300365
0,4455	-1,22100122100122
0,446	-1,22100122100122
0,4465	3,66300366300365
0,447	-1,22100122100122
0,4475	-1,22100122100122
0,448	-6,10500610500608
0,4485	-6,10500610500608
0,449	-6,10500610500608
0,4495	-1,22100122100122
0,45	3,66300366300365
0,4505	3,66300366300365
0,451	8,54700854700852
0,4515	8,54700854700852
0,452	3,66300366300365
0,4525	3,66300366300365
0,453	3,66300366300365
0,4535	3,66300366300365
0,454	-6,10500610500608
0,4545	-1,22100122100122
0,455	-6,10500610500608
0,4555	-10,989010989011
0,456	-15,8730158730158
0,4565	-10,989010989011
0,457	-10,989010989011
0,4575	-10,989010989011
0,458	-10,989010989011
0,4585	-1,22100122100122
0,459	3,66300366300365
0,4595	3,66300366300365
0,46	8,54700854700852
0,4605	3,66300366300365
0,461	3,66300366300365
0,4615	3,66300366300365
0,462	3,66300366300365
0,4625	3,66300366300365
0,463	8,54700854700852
0,4635	8,54700854700852
0,464	8,54700854700852
0,4645	3,66300366300365
0,465	8,54700854700852
0,4655	8,54700854700852
0,466	8,54700854700852
0,4665	13,4310134310134
0,467	23,1990231990231
0,4675	32,9670329670329
0,468	32,9670329670329
0,4685	28,083028083028
0,469	23,1990231990231
0,4695	23,1990231990231
0,47	13,4310134310134
0,4705	3,66300366300365
0,471	-6,10500610500608
0,4715	-15,8730158730158
0,472	-20,7570207570207
0,4725	-30,5250305250304
0,473	-35,4090354090353
0,4735	-30,5250305250304
0,474	-25,6410256410256
0,4745	-10,989010989011
0,475	3,66300366300365
0,4755	18,3150183150183
0,476	28,083028083028
0,4765	28,083028083028
0,477	23,1990231990231
0,4775	18,3150183150183
0,478	3,66300366300365
0,4785	-1,22100122100122
0,479	-6,10500610500608
0,4795	-10,989010989011
0,48	-6,10500610500608
0,4805	3,66300366300365
0,481	3,66300366300365
0,4815	3,66300366300365
0,482	3,66300366300365
0,4825	8,54700854700852
0,483	18,3150183150183
0,4835	23,1990231990231
0,484	18,3150183150183
0,4845	13,4310134310134
0,485	8,54700854700852
0,4855	-1,22100122100122
0,486	-6,10500610500608
0,4865	-6,10500610500608
0,487	-6,10500610500608
0,4875	-6,10500610500608
0,488	-6,10500610500608
0,4885	8,54700854700852
0,489	28,083028083028
0,4895	42,7350427350426
0,49	47,6190476190475
0,4905	37,8510378510377
0,491	23,1990231990231
0,4915	3,66300366300365
0,492	-6,10500610500608
0,4925	-10,989010989011
0,493	-15,8730158730158
0,4935	-20,7570207570207
0,494	-30,5250305250304
0,4945	-30,5250305250304
0,495	-35,4090354090353
0,4955	-30,5250305250304
0,496	-20,7570207570207
0,4965	-10,989010989011
0,497	-1,22100122100122
0,4975	8,54700854700852
0,498	13,4310134310134
0,4985	18,3150183150183
0,499	18,3150183150183
0,4995	18,3150183150183
0,5	13,4310134310134
0,5005	13,4310134310134
0,501	8,54700854700852
0,5015	8,54700854700852
0,502	8,54700854700852
0,5025	13,4310134310134
0,503	18,3150183150183
0,5035	18,3150183150183
0,504	23,1990231990231
0,5045	13,4310134310134
0,505	3,66300366300365
0,5055	-6,10500610500608
0,506	-6,10500610500608
0,5065	-1,22100122100122
0,507	3,66300366300365
0,5075	8,54700854700852
0,508	18,3150183150183
0,5085	23,1990231990231
0,509	37,8510378510377
0,5095	47,6190476190475
0,51	37,8510378510377
0,5105	23,1990231990231
0,511	8,54700854700852
0,5115	-1,22100122100122
0,512	-1,22100122100122
0,5125	-1,22100122100122
0,513	3,66300366300365
0,5135	8,54700854700852
0,514	3,66300366300365
0,5145	-1,22100122100122
0,515	-6,10500610500608
0,5155	-10,989010989011
0,516	-10,989010989011
0,5165	-10,989010989011
0,517	-1,22100122100122
0,5175	3,66300366300365
0,518	-1,22100122100122
0,5185	-6,10500610500608
0,519	-10,989010989011
0,5195	-6,10500610500608
0,52	-6,10500610500608
0,5205	-1,22100122100122
0,521	-1,22100122100122
0,5215	3,66300366300365
0,522	-1,22100122100122
0,5225	-6,10500610500608
0,523	-6,10500610500608
0,5235	-1,22100122100122
0,524	-1,22100122100122
0,5245	3,66300366300365
0,525	3,66300366300365
0,5255	3,66300366300365
0,526	3,66300366300365
0,5265	3,66300366300365
0,527	3,66300366300365
0,5275	3,66300366300365
0,528	3,66300366300365
0,5285	3,66300366300365
0,529	3,66300366300365
0,5295	3,66300366300365
0,53	3,66300366300365
0,5305	3,66300366300365
0,531	8,54700854700852
0,5315	8,54700854700852
0,532	8,54700854700852
0,5325	3,66300366300365
0,533	3,66300366300365
0,5335	3,66300366300365
0,534	3,66300366300365
0,5345	3,66300366300365
0,535	8,54700854700852
0,5355	3,66300366300365
0,536	8,54700854700852
0,5365	3,66300366300365
0,537	8,54700854700852
0,5375	8,54700854700852
0,538	8,54700854700852
0,5385	3,66300366300365
0,539	3,66300366300365
0,5395	3,66300366300365
0,54	3,66300366300365
0,5405	3,66300366300365
0,541	3,66300366300365
0,5415	3,66300366300365
0,542	3,66300366300365
0,5425	3,66300366300365
0,543	3,66300366300365
0,5435	3,66300366300365
0,544	3,66300366300365
0,5445	3,66300366300365
0,545	3,66300366300365
0,5455	3,66300366300365
0,546	-1,22100122100122
0,5465	-1,22100122100122
0,547	-1,22100122100122
0,5475	-1,22100122100122
0,548	-1,22100122100122
0,5485	3,66300366300365
0,549	3,66300366300365
0,5495	3,66300366300365
0,55	3,66300366300365
0,5505	3,66300366300365
0,551	8,54700854700852
0,5515	8,54700854700852
0,552	8,54700854700852
0,5525	13,4310134310134
0,553	23,1990231990231
0,5535	32,9670329670329
0,554	42,7350427350426
0,5545	37,8510378510377
0,555	28,083028083028
0,5555	23,1990231990231
0,556	13,4310134310134
0,5565	3,66300366300365
0,557	-6,10500610500608
0,5575	-10,989010989011
0,558	-20,7570207570207
0,5585	-25,6410256410256
0,559	-30,5250305250304
0,5595	-30,5250305250304
0,56	-35,4090354090353
0,5605	-30,5250305250304
0,561	-20,7570207570207
0,5615	-15,8730158730158
0,562	-10,989010989011
0,5625	3,66300366300365
0,563	8,54700854700852
0,5635	13,4310134310134
0,564	13,4310134310134
0,5645	13,4310134310134
0,565	13,4310134310134
0,5655	13,4310134310134
0,566	23,1990231990231
0,5665	28,083028083028
0,567	28,083028083028
0,5675	28,083028083028
0,568	28,083028083028
0,5685	28,083028083028
0,569	23,1990231990231
0,5695	18,3150183150183
0,57	8,54700854700852
0,5705	-1,22100122100122
0,571	-10,989010989011
0,5715	-15,8730158730158
0,572	-15,8730158730158
0,5725	-20,7570207570207
0,573	-15,8730158730158
0,5735	-15,8730158730158
0,574	-15,8730158730158
0,5745	-10,989010989011
0,575	-1,22100122100122
0,5755	8,54700854700852
0,576	18,3150183150183
0,5765	18,3150183150183
0,577	23,1990231990231
0,5775	18,3150183150183
0,578	18,3150183150183
0,5785	13,4310134310134
0,579	13,4310134310134
0,5795	13,4310134310134
0,58	13,4310134310134
0,5805	18,3150183150183
0,581	13,4310134310134
0,5815	3,66300366300365
0,582	-6,10500610500608
0,5825	-10,989010989011
0,583	-10,989010989011
0,5835	-10,989010989011
0,584	-10,989010989011
0,5845	-1,22100122100122
0,585	8,54700854700852
0,5855	8,54700854700852
0,586	13,4310134310134
0,5865	13,4310134310134
0,587	8,54700854700852
0,5875	8,54700854700852
0,588	13,4310134310134
0,5885	13,4310134310134
0,589	13,4310134310134
0,5895	8,54700854700852
0,59	3,66300366300365
0,5905	3,66300366300365
0,591	3,66300366300365
0,5915	3,66300366300365
0,592	8,54700854700852
0,5925	8,54700854700852
0,593	8,54700854700852
0,5935	8,54700854700852
0,594	-1,22100122100122
0,5945	-1,22100122100122
0,595	3,66300366300365
0,5955	18,3150183150183
0,596	28,083028083028
0,5965	32,9670329670329
0,597	32,9670329670329
0,5975	28,083028083028
0,598	18,3150183150183
0,5985	3,66300366300365
0,599	-10,989010989011
0,5995	-25,6410256410256
0,6	-30,5250305250304
0,6005	-40,2930402930402
0,601	-45,177045177045
0,6015	-50,0610500610499
0,602	-45,177045177045
0,6025	-40,2930402930402
0,603	-25,6410256410256
0,6035	-10,989010989011
0,604	3,66300366300365
0,6045	18,3150183150183
0,605	23,1990231990231
0,6055	18,3150183150183
0,606	18,3150183150183
0,6065	18,3150183150183
0,607	23,1990231990231
0,6075	18,3150183150183
0,608	18,3150183150183
0,6085	13,4310134310134
0,609	3,66300366300365
0,6095	-10,989010989011
0,61	-10,989010989011
0,6105	-10,989010989011
0,611	-1,22100122100122
0,6115	8,54700854700852
0,612	18,3150183150183
0,6125	23,1990231990231
0,613	42,7350427350426
0,6135	47,6190476190475
0,614	47,6190476190475
0,6145	28,083028083028
0,615	18,3150183150183
0,6155	8,54700854700852
0,616	3,66300366300365
0,6165	3,66300366300365
0,617	3,66300366300365
0,6175	3,66300366300365
0,618	3,66300366300365
0,6185	3,66300366300365
0,619	3,66300366300365
0,6195	-1,22100122100122
0,62	3,66300366300365
0,6205	3,66300366300365
0,621	8,54700854700852
0,6215	8,54700854700852
0,622	8,54700854700852
0,6225	8,54700854700852
0,623	3,66300366300365
0,6235	3,66300366300365
0,624	3,66300366300365
0,6245	-1,22100122100122
0,625	-6,10500610500608
0,6255	-6,10500610500608
0,626	-6,10500610500608
0,6265	-10,989010989011
0,627	-6,10500610500608
0,6275	-6,10500610500608
0,628	-1,22100122100122
0,6285	3,66300366300365
0,629	3,66300366300365
0,6295	-1,22100122100122
0,63	-1,22100122100122
0,6305	-6,10500610500608
0,631	-6,10500610500608
0,6315	-6,10500610500608
0,632	-1,22100122100122
0,6325	-6,10500610500608
0,633	3,66300366300365
0,6335	3,66300366300365
0,634	8,54700854700852
0,6345	3,66300366300365
0,635	3,66300366300365
0,6355	3,66300366300365
0,636	3,66300366300365
0,6365	3,66300366300365
0,637	3,66300366300365
0,6375	3,66300366300365
0,638	3,66300366300365
0,6385	3,66300366300365
0,639	8,54700854700852
0,6395	8,54700854700852
0,64	8,54700854700852
0,6405	8,54700854700852
0,641	8,54700854700852
0,6415	8,54700854700852
0,642	8,54700854700852
0,6425	13,4310134310134
0,643	8,54700854700852
0,6435	3,66300366300365
0,644	3,66300366300365
0,6445	8,54700854700852
0,645	8,54700854700852
0,6455	8,54700854700852
0,646	3,66300366300365
0,6465	-6,10500610500608
0,647	-10,989010989011
0,6475	-10,989010989011
0,648	-10,989010989011
0,6485	-10,989010989011
0,649	-10,989010989011
0,6495	-6,10500610500608
0,65	3,66300366300365
0,6505	3,66300366300365
0,651	8,54700854700852
0,6515	3,66300366300365
0,652	3,66300366300365
0,6525	8,54700854700852
0,653	3,66300366300365
0,6535	3,66300366300365
0,654	3,66300366300365
0,6545	8,54700854700852
0,655	8,54700854700852
0,6555	3,66300366300365
0,656	18,3150183150183
0,6565	28,083028083028
0,657	32,9670329670329
0,6575	32,9670329670329
0,658	28,083028083028
0,6585	28,083028083028
0,659	28,083028083028
0,6595	28,083028083028
0,66	23,1990231990231
0,6605	8,54700854700852
0,661	-1,22100122100122
0,6615	-10,989010989011
0,662	-20,7570207570207
0,6625	-30,5250305250304
0,663	-40,2930402930402
0,6635	-50,0610500610499
0,664	-50,0610500610499
0,6645	-40,2930402930402
0,665	-30,5250305250304
0,6655	-15,8730158730158
0,666	-10,989010989011
0,6665	-1,22100122100122
0,667	3,66300366300365
0,6675	8,54700854700852
0,668	23,1990231990231
0,6685	28,083028083028
0,669	28,083028083028
0,6695	42,7350427350426
0,67	59,8290598290596
0,6705	64,7130647130645
0,671	47,6190476190475
0,6715	37,8510378510377
0,672	23,1990231990231
0,6725	8,54700854700852
0,673	3,66300366300365
0,6735	-6,10500610500608
0,674	-10,989010989011
0,6745	-20,7570207570207
0,675	-30,5250305250304
0,6755	-45,177045177045
0,676	-45,177045177045
0,6765	-40,2930402930402
0,677	-30,5250305250304
0,6775	-15,8730158730158
0,678	-10,989010989011
0,6785	3,66300366300365
0,679	8,54700854700852
0,6795	13,4310134310134
0,68	18,3150183150183
0,6805	18,3150183150183
0,681	23,1990231990231
0,6815	23,1990231990231
0,682	28,083028083028
0,6825	28,083028083028
0,683	23,1990231990231
0,6835	18,3150183150183
0,684	18,3150183150183
0,6845	18,3150183150183
0,685	13,4310134310134
0,6855	8,54700854700852
0,686	8,54700854700852
0,6865	3,66300366300365
0,687	3,66300366300365
0,6875	3,66300366300365
0,688	8,54700854700852
0,6885	3,66300366300365
0,689	13,4310134310134
0,6895	8,54700854700852
0,69	3,66300366300365
0,6905	3,66300366300365
0,691	-1,22100122100122
0,6915	3,66300366300365
0,692	8,54700854700852
0,6925	8,54700854700852
0,693	3,66300366300365
0,6935	3,66300366300365
0,694	3,66300366300365
0,6945	3,66300366300365
0,695	3,66300366300365
0,6955	3,66300366300365
0,696	3,66300366300365
0,6965	3,66300366300365
0,697	-1,22100122100122
0,6975	3,66300366300365
0,698	-1,22100122100122
0,6985	3,66300366300365
0,699	3,66300366300365
0,6995	3,66300366300365
0,7	3,66300366300365
0,7005	3,66300366300365
0,701	-1,22100122100122
0,7015	-1,22100122100122
0,702	-1,22100122100122
0,7025	-1,22100122100122
0,703	-1,22100122100122
0,7035	-1,22100122100122
0,704	-1,22100122100122
0,7045	3,66300366300365
0,705	-1,22100122100122
0,7055	-6,10500610500608
0,706	-6,10500610500608
0,7065	-6,10500610500608
0,707	-1,22100122100122
0,7075	3,66300366300365
0,708	3,66300366300365
0,7085	-6,10500610500608
0,709	-10,989010989011
0,7095	-10,989010989011
0,71	-15,8730158730158
0,7105	-10,989010989011
0,711	-6,10500610500608
0,7115	-1,22100122100122
0,712	13,4310134310134
0,7125	32,9670329670329
0,713	52,5030525030523
0,7135	59,8290598290596
0,714	42,7350427350426
0,7145	23,1990231990231
0,715	13,4310134310134
0,7155	8,54700854700852
0,716	3,66300366300365
0,7165	8,54700854700852
0,717	8,54700854700852
0,7175	8,54700854700852
0,718	3,66300366300365
0,7185	-1,22100122100122
0,719	-6,10500610500608
0,7195	-6,10500610500608
0,72	-6,10500610500608
0,7205	-6,10500610500608
0,721	-6,10500610500608
0,7215	-6,10500610500608
0,722	-6,10500610500608
0,7225	-6,10500610500608
0,723	-1,22100122100122
0,7235	3,66300366300365
0,724	-1,22100122100122
0,7245	-1,22100122100122
0,725	-1,22100122100122
0,7255	3,66300366300365
0,726	3,66300366300365
0,7265	3,66300366300365
0,727	3,66300366300365
0,7275	3,66300366300365
0,728	3,66300366300365
0,7285	3,66300366300365
0,729	3,66300366300365
0,7295	3,66300366300365
0,73	3,66300366300365
0,7305	8,54700854700852
0,731	8,54700854700852
0,7315	8,54700854700852
0,732	3,66300366300365
0,7325	3,66300366300365
0,733	3,66300366300365
0,7335	3,66300366300365
0,734	3,66300366300365
0,7345	3,66300366300365
0,735	3,66300366300365
0,7355	3,66300366300365
0,736	3,66300366300365
0,7365	3,66300366300365
0,737	-1,22100122100122
0,7375	-1,22100122100122
0,738	3,66300366300365
0,7385	18,3150183150183
0,739	28,083028083028
0,7395	28,083028083028
0,74	23,1990231990231
0,7405	18,3150183150183
0,741	18,3150183150183
0,7415	8,54700854700852
0,742	3,66300366300365
0,7425	-6,10500610500608
0,743	-10,989010989011
0,7435	-10,989010989011
0,744	-10,989010989011
0,7445	-10,989010989011
0,745	-10,989010989011
0,7455	-10,989010989011
0,746	-10,989010989011
0,7465	-10,989010989011
0,747	3,66300366300365
0,7475	8,54700854700852
0,748	13,4310134310134
0,7485	13,4310134310134
0,749	18,3150183150183
0,7495	18,3150183150183
0,75	18,3150183150183
0,7505	8,54700854700852
0,751	3,66300366300365
0,7515	8,54700854700852
0,752	13,4310134310134
0,7525	18,3150183150183
0,753	18,3150183150183
0,7535	13,4310134310134
0,754	8,54700854700852
0,7545	3,66300366300365
0,755	3,66300366300365
0,7555	3,66300366300365
0,756	8,54700854700852
0,7565	8,54700854700852
0,757	8,54700854700852
0,7575	13,4310134310134
0,758	3,66300366300365
0,7585	-6,10500610500608
0,759	-10,989010989011
0,7595	-20,7570207570207
0,76	-20,7570207570207
0,7605	-30,5250305250304
0,761	-35,4090354090353
0,7615	-40,2930402930402
0,762	-40,2930402930402
0,7625	-30,5250305250304
0,763	-15,8730158730158
0,7635	-6,10500610500608
0,764	3,66300366300365
0,7645	18,3150183150183
0,765	23,1990231990231
0,7655	28,083028083028
0,766	28,083028083028
0,7665	28,083028083028
0,767	28,083028083028
0,7675	28,083028083028
0,768	23,1990231990231
0,7685	23,1990231990231
0,769	18,3150183150183
0,7695	18,3150183150183
0,77	18,3150183150183
0,7705	13,4310134310134
0,771	8,54700854700852
0,7715	8,54700854700852
0,772	13,4310134310134
0,7725	18,3150183150183
0,773	8,54700854700852
0,7735	8,54700854700852
0,774	13,4310134310134
0,7745	8,54700854700852
0,775	8,54700854700852
0,7755	8,54700854700852
0,776	3,66300366300365
0,7765	3,66300366300365
0,777	3,66300366300365
0,7775	8,54700854700852
0,778	8,54700854700852
0,7785	8,54700854700852
0,779	8,54700854700852
0,7795	8,54700854700852
0,78	3,66300366300365
0,7805	3,66300366300365
0,781	-1,22100122100122
0,7815	-1,22100122100122
0,782	-1,22100122100122
0,7825	-1,22100122100122
0,783	3,66300366300365
0,7835	-1,22100122100122
0,784	-1,22100122100122
0,7845	-6,10500610500608
0,785	-6,10500610500608
0,7855	-10,989010989011
0,786	-6,10500610500608
0,7865	-6,10500610500608
0,787	-1,22100122100122
0,7875	3,66300366300365
0,788	8,54700854700852
0,7885	8,54700854700852
0,789	3,66300366300365
0,7895	3,66300366300365
0,79	3,66300366300365
0,7905	3,66300366300365
0,791	3,66300366300365
0,7915	-1,22100122100122
0,792	-10,989010989011
0,7925	-10,989010989011
0,793	-15,8730158730158
0,7935	-10,989010989011
0,794	-6,10500610500608
0,7945	-1,22100122100122
0,795	3,66300366300365
0,7955	13,4310134310134
0,796	32,9670329670329
0,7965	47,6190476190475
0,797	47,6190476190475
0,7975	32,9670329670329
0,798	18,3150183150183
0,7985	8,54700854700852
0,799	8,54700854700852
0,7995	13,4310134310134
0,8	18,3150183150183
0,8005	13,4310134310134
0,801	8,54700854700852
0,8015	8,54700854700852
0,802	3,66300366300365
0,8025	-6,10500610500608
0,803	-10,989010989011
0,8035	-10,989010989011
0,804	-10,989010989011
0,8045	-15,8730158730158
0,805	-20,7570207570207
0,8055	-20,7570207570207
0,806	-10,989010989011
0,8065	-10,989010989011
0,807	-6,10500610500608
0,8075	-1,22100122100122
0,808	-6,10500610500608
0,8085	-6,10500610500608
0,809	-6,10500610500608
0,8095	-1,22100122100122
0,81	3,66300366300365
0,8105	8,54700854700852
0,811	8,54700854700852
0,8115	13,4310134310134
0,812	18,3150183150183
0,8125	23,1990231990231
0,813	28,083028083028
0,8135	28,083028083028
0,814	23,1990231990231
0,8145	8,54700854700852
0,815	-1,22100122100122
0,8155	-1,22100122100122
0,816	-1,22100122100122
0,8165	-1,22100122100122
0,817	3,66300366300365
0,8175	3,66300366300365
0,818	3,66300366300365
0,8185	3,66300366300365
0,819	3,66300366300365
0,8195	3,66300366300365
0,82	3,66300366300365
0,8205	3,66300366300365
0,821	3,66300366300365
0,8215	3,66300366300365
0,822	-1,22100122100122
0,8225	-1,22100122100122
0,823	-1,22100122100122
0,8235	-1,22100122100122
0,824	8,54700854700852
0,8245	8,54700854700852
0,825	13,4310134310134
0,8255	13,4310134310134
0,826	8,54700854700852
0,8265	8,54700854700852
0,827	8,54700854700852
0,8275	3,66300366300365
0,828	-1,22100122100122
0,8285	-6,10500610500608
0,829	-6,10500610500608
0,8295	-6,10500610500608
0,83	-6,10500610500608
0,8305	-6,10500610500608
0,831	-6,10500610500608
0,8315	-1,22100122100122
0,832	3,66300366300365
0,8325	3,66300366300365
0,833	3,66300366300365
0,8335	3,66300366300365
0,834	3,66300366300365
0,8345	8,54700854700852
0,835	23,1990231990231
0,8355	32,9670329670329
0,836	37,8510378510377
0,8365	32,9670329670329
0,837	23,1990231990231
0,8375	18,3150183150183
0,838	13,4310134310134
0,8385	3,66300366300365
0,839	3,66300366300365
0,8395	8,54700854700852
0,84	8,54700854700852
0,8405	8,54700854700852
0,841	-6,10500610500608
0,8415	-10,989010989011
0,842	-15,8730158730158
0,8425	-20,7570207570207
0,843	-25,6410256410256
0,8435	-25,6410256410256
0,844	-25,6410256410256
0,8445	-30,5250305250304
0,845	-35,4090354090353
0,8455	-40,2930402930402
0,846	-30,5250305250304
0,8465	-15,8730158730158
0,847	-1,22100122100122
0,8475	8,54700854700852
0,848	23,1990231990231
0,8485	32,9670329670329
0,849	42,7350427350426
0,8495	47,6190476190475
0,85	42,7350427350426
0,8505	32,9670329670329
0,851	28,083028083028
0,8515	23,1990231990231
0,852	18,3150183150183
0,8525	8,54700854700852
0,853	3,66300366300365
0,8535	-1,22100122100122
0,854	-6,10500610500608
0,8545	-6,10500610500608
0,855	-6,10500610500608
0,8555	-6,10500610500608
0,856	-6,10500610500608
0,8565	-1,22100122100122
0,857	3,66300366300365
0,8575	3,66300366300365
0,858	8,54700854700852
0,8585	8,54700854700852
0,859	8,54700854700852
0,8595	8,54700854700852
0,86	8,54700854700852
0,8605	3,66300366300365
0,861	3,66300366300365
0,8615	3,66300366300365
0,862	8,54700854700852
0,8625	8,54700854700852
0,863	8,54700854700852
0,8635	8,54700854700852
0,864	8,54700854700852
0,8645	8,54700854700852
0,865	8,54700854700852
0,8655	3,66300366300365
0,866	3,66300366300365
0,8665	3,66300366300365
0,867	3,66300366300365
0,8675	3,66300366300365
0,868	18,3150183150183
0,8685	28,083028083028
0,869	28,083028083028
0,8695	18,3150183150183
0,87	13,4310134310134
0,8705	3,66300366300365
0,871	-1,22100122100122
0,8715	-1,22100122100122
0,872	-1,22100122100122
0,8725	-6,10500610500608
0,873	-1,22100122100122
0,8735	-1,22100122100122
0,874	8,54700854700852
0,8745	13,4310134310134
0,875	13,4310134310134
0,8755	13,4310134310134
0,876	8,54700854700852
0,8765	3,66300366300365
0,877	3,66300366300365
0,8775	-6,10500610500608
0,878	-6,10500610500608
0,8785	-10,989010989011
0,879	-10,989010989011
0,8795	-15,8730158730158
0,88	-20,7570207570207
0,8805	-40,2930402930402
0,881	-50,0610500610499
0,8815	-50,0610500610499
0,882	-45,177045177045
0,8825	-30,5250305250304
0,883	-10,989010989011
0,8835	18,3150183150183
0,884	32,9670329670329
0,8845	52,5030525030523
0,885	64,7130647130645
0,8855	59,8290598290596
0,886	42,7350427350426
0,8865	23,1990231990231
0,887	8,54700854700852
0,8875	8,54700854700852
0,888	8,54700854700852
0,8885	18,3150183150183
0,889	18,3150183150183
0,8895	13,4310134310134
0,89	8,54700854700852
0,8905	3,66300366300365
0,891	3,66300366300365
0,8915	-1,22100122100122
0,892	3,66300366300365
0,8925	3,66300366300365
0,893	3,66300366300365
0,8935	3,66300366300365
0,894	-1,22100122100122
0,8945	-1,22100122100122
0,895	-1,22100122100122
0,8955	-1,22100122100122
0,896	-1,22100122100122
0,8965	-1,22100122100122
0,897	-1,22100122100122
0,8975	-1,22100122100122
0,898	-1,22100122100122
0,8985	-6,10500610500608
0,899	-6,10500610500608
0,8995	-6,10500610500608
0,9	-1,22100122100122
0,9005	3,66300366300365
0,901	3,66300366300365
0,9015	3,66300366300365
0,902	3,66300366300365
0,9025	3,66300366300365
0,903	-1,22100122100122
0,9035	3,66300366300365
0,904	3,66300366300365
0,9045	8,54700854700852
0,905	3,66300366300365
0,9055	3,66300366300365
0,906	3,66300366300365
0,9065	3,66300366300365
0,907	3,66300366300365
0,9075	3,66300366300365
0,908	8,54700854700852
0,9085	8,54700854700852
0,909	8,54700854700852
0,9095	8,54700854700852
0,91	3,66300366300365
0,9105	8,54700854700852
0,911	8,54700854700852
0,9115	3,66300366300365
0,912	3,66300366300365
0,9125	3,66300366300365
0,913	3,66300366300365
0,9135	3,66300366300365
0,914	3,66300366300365
0,9145	3,66300366300365
0,915	3,66300366300365
0,9155	3,66300366300365
0,916	3,66300366300365
0,9165	3,66300366300365
0,917	3,66300366300365
0,9175	3,66300366300365
0,918	3,66300366300365
0,9185	3,66300366300365
0,919	3,66300366300365
0,9195	3,66300366300365
0,92	-1,22100122100122
0,9205	3,66300366300365
0,921	8,54700854700852
0,9215	18,3150183150183
0,922	13,4310134310134
0,9225	8,54700854700852
0,923	3,66300366300365
0,9235	-1,22100122100122
0,924	-6,10500610500608
0,9245	-6,10500610500608
0,925	-1,22100122100122
0,9255	3,66300366300365
0,926	3,66300366300365
0,9265	3,66300366300365
0,927	8,54700854700852
0,9275	8,54700854700852
0,928	3,66300366300365
0,9285	3,66300366300365
0,929	3,66300366300365
0,9295	3,66300366300365
0,93	8,54700854700852
0,9305	13,4310134310134
0,931	13,4310134310134
0,9315	8,54700854700852
0,932	8,54700854700852
0,9325	13,4310134310134
0,933	28,083028083028
0,9335	37,8510378510377
0,934	32,9670329670329
0,9345	28,083028083028
0,935	28,083028083028
0,9355	23,1990231990231
0,936	18,3150183150183
0,9365	8,54700854700852
0,937	-10,989010989011
0,9375	-25,6410256410256
0,938	-40,2930402930402
0,9385	-57,3870573870572
0,939	-62,2710622710621
0,9395	-62,2710622710621
0,94	-57,3870573870572
0,9405	-57,3870573870572
0,941	-50,0610500610499
0,9415	-45,177045177045
0,942	-35,4090354090353
0,9425	-20,7570207570207
0,943	-1,22100122100122
0,9435	18,3150183150183
0,944	28,083028083028
0,9445	42,7350427350426
0,945	47,6190476190475
0,9455	47,6190476190475
0,946	42,7350427350426
0,9465	37,8510378510377
0,947	32,9670329670329
0,9475	28,083028083028
0,948	28,083028083028
0,9485	28,083028083028
0,949	23,1990231990231
0,9495	18,3150183150183
0,95	18,3150183150183
0,9505	13,4310134310134
0,951	8,54700854700852
0,9515	8,54700854700852
0,952	8,54700854700852
0,9525	8,54700854700852
0,953	8,54700854700852
0,9535	8,54700854700852
0,954	8,54700854700852
0,9545	3,66300366300365
0,955	3,66300366300365
0,9555	8,54700854700852
0,956	8,54700854700852
0,9565	8,54700854700852
0,957	8,54700854700852
0,9575	8,54700854700852
0,958	8,54700854700852
0,9585	8,54700854700852
0,959	8,54700854700852
0,9595	13,4310134310134
0,96	8,54700854700852
0,9605	3,66300366300365
0,961	3,66300366300365
0,9615	-6,10500610500608
0,962	-1,22100122100122
0,9625	-1,22100122100122
0,963	-1,22100122100122
0,9635	-1,22100122100122
0,964	-6,10500610500608
0,9645	-6,10500610500608
0,965	-1,22100122100122
0,9655	3,66300366300365
0,966	3,66300366300365
0,9665	3,66300366300365
0,967	-1,22100122100122
0,9675	-6,10500610500608
0,968	-6,10500610500608
0,9685	-6,10500610500608
0,969	-1,22100122100122
0,9695	3,66300366300365
0,97	3,66300366300365
0,9705	3,66300366300365
0,971	-1,22100122100122
0,9715	-1,22100122100122
0,972	-1,22100122100122
0,9725	3,66300366300365
0,973	3,66300366300365
0,9735	3,66300366300365
0,974	3,66300366300365
0,9745	3,66300366300365
0,975	-1,22100122100122
0,9755	-1,22100122100122
0,976	3,66300366300365
0,9765	3,66300366300365
0,977	3,66300366300365
0,9775	3,66300366300365
0,978	3,66300366300365
0,9785	3,66300366300365
0,979	3,66300366300365
0,9795	3,66300366300365
0,98	3,66300366300365
0,9805	3,66300366300365
0,981	8,54700854700852
0,9815	3,66300366300365
0,982	8,54700854700852
0,9825	3,66300366300365
0,983	3,66300366300365
0,9835	3,66300366300365
0,984	13,4310134310134
0,9845	8,54700854700852
0,985	8,54700854700852
0,9855	3,66300366300365
0,986	3,66300366300365
0,9865	3,66300366300365
0,987	-1,22100122100122
0,9875	-1,22100122100122
0,988	-6,10500610500608
0,9885	-6,10500610500608
0,989	-6,10500610500608
0,9895	-10,989010989011
0,99	-6,10500610500608
0,9905	-1,22100122100122
0,991	-1,22100122100122
0,9915	3,66300366300365
0,992	3,66300366300365
0,9925	3,66300366300365
0,993	3,66300366300365
0,9935	8,54700854700852
0,994	8,54700854700852
0,9945	8,54700854700852
0,995	18,3150183150183
0,9955	13,4310134310134
0,996	13,4310134310134
0,9965	8,54700854700852
0,997	8,54700854700852
0,9975	3,66300366300365
0,998	3,66300366300365
0,9985	3,66300366300365
0,999	-1,22100122100122
0,9995	-1,22100122100122
1	-1,22100122100122
1,0005	-1,22100122100122
1,001	-1,22100122100122
1,0015	3,66300366300365
1,002	3,66300366300365
1,0025	3,66300366300365
1,003	3,66300366300365
1,0035	3,66300366300365
1,004	3,66300366300365
1,0045	3,66300366300365
1,005	3,66300366300365
1,0055	-1,22100122100122
1,006	-1,22100122100122
1,0065	-1,22100122100122
1,007	-1,22100122100122
1,0075	3,66300366300365
1,008	3,66300366300365
1,0085	13,4310134310134
1,009	32,9670329670329
1,0095	47,6190476190475
1,01	47,6190476190475
1,0105	28,083028083028
1,011	8,54700854700852
1,0115	-1,22100122100122
1,012	-6,10500610500608
1,0125	-1,22100122100122
1,013	3,66300366300365
1,0135	3,66300366300365
1,014	3,66300366300365
1,0145	3,66300366300365
1,015	-1,22100122100122
1,0155	-6,10500610500608
1,016	-10,989010989011
1,0165	-6,10500610500608
1,017	-6,10500610500608
1,0175	-6,10500610500608
1,018	-6,10500610500608
1,0185	-6,10500610500608
1,019	-1,22100122100122
1,0195	-1,22100122100122
1,02	-1,22100122100122
1,0205	-1,22100122100122
1,021	3,66300366300365
1,0215	3,66300366300365
1,022	3,66300366300365
1,0225	3,66300366300365
1,023	3,66300366300365
1,0235	3,66300366300365
1,024	3,66300366300365
1,0245	-1,22100122100122
1,025	-1,22100122100122
1,0255	-1,22100122100122
1,026	3,66300366300365
1,0265	3,66300366300365
1,027	8,54700854700852
1,0275	8,54700854700852
1,028	3,66300366300365
1,0285	3,66300366300365
1,029	3,66300366300365
1,0295	3,66300366300365
1,03	8,54700854700852
1,0305	18,3150183150183
1,031	23,1990231990231
1,0315	28,083028083028
1,032	28,083028083028
1,0325	23,1990231990231
1,033	23,1990231990231
1,0335	18,3150183150183
1,034	3,66300366300365
1,0345	-6,10500610500608
1,035	-10,989010989011
1,0355	-20,7570207570207
1,036	-35,4090354090353
1,0365	-45,177045177045
1,037	-50,0610500610499
1,0375	-40,2930402930402
1,038	-30,5250305250304
1,0385	-10,989010989011
1,039	8,54700854700852
1,0395	23,1990231990231
1,04	28,083028083028
1,0405	28,083028083028
1,041	18,3150183150183
1,0415	18,3150183150183
1,042	18,3150183150183
1,0425	23,1990231990231
1,043	28,083028083028
1,0435	23,1990231990231
1,044	18,3150183150183
1,0445	13,4310134310134
1,045	8,54700854700852
1,0455	8,54700854700852
1,046	8,54700854700852
1,0465	8,54700854700852
1,047	8,54700854700852
1,0475	8,54700854700852
1,048	8,54700854700852
1,0485	18,3150183150183
1,049	18,3150183150183
1,0495	13,4310134310134
1,05	8,54700854700852
1,0505	3,66300366300365
1,051	-1,22100122100122
1,0515	-6,10500610500608
1,052	-6,10500610500608
1,0525	-1,22100122100122
1,053	-6,10500610500608
1,0535	-6,10500610500608
1,054	-6,10500610500608
1,0545	8,54700854700852
1,055	18,3150183150183
1,0555	18,3150183150183
1,056	13,4310134310134
1,0565	13,4310134310134
1,057	13,4310134310134
1,0575	8,54700854700852
1,058	3,66300366300365
1,0585	-6,10500610500608
1,059	-20,7570207570207
1,0595	-30,5250305250304
1,06	-30,5250305250304
1,0605	-40,2930402930402
1,061	-40,2930402930402
1,0615	-30,5250305250304
1,062	-30,5250305250304
1,0625	-15,8730158730158
1,063	-6,10500610500608
1,0635	3,66300366300365
1,064	13,4310134310134
1,0645	18,3150183150183
1,065	23,1990231990231
1,0655	28,083028083028
1,066	28,083028083028
1,0665	28,083028083028
1,067	28,083028083028
1,0675	23,1990231990231
1,068	13,4310134310134
1,0685	3,66300366300365
1,069	-10,989010989011
1,0695	-10,989010989011
1,07	-6,10500610500608
1,0705	3,66300366300365
1,071	3,66300366300365
1,0715	8,54700854700852
1,072	8,54700854700852
1,0725	28,083028083028
1,073	47,6190476190475
1,0735	59,8290598290596
1,074	37,8510378510377
1,0745	23,1990231990231
1,075	8,54700854700852
1,0755	3,66300366300365
1,076	3,66300366300365
1,0765	3,66300366300365
1,077	3,66300366300365
1,0775	3,66300366300365
1,078	3,66300366300365
1,0785	-1,22100122100122
1,079	-1,22100122100122
1,0795	-6,10500610500608
1,08	-6,10500610500608
1,0805	-10,989010989011
1,081	-10,989010989011
1,0815	-6,10500610500608
1,082	-6,10500610500608
1,0825	-6,10500610500608
1,083	-1,22100122100122
1,0835	-1,22100122100122
1,084	-1,22100122100122
1,0845	-1,22100122100122
1,085	-1,22100122100122
1,0855	-1,22100122100122
1,086	-1,22100122100122
1,0865	-6,10500610500608
1,087	-6,10500610500608
1,0875	3,66300366300365
1,088	3,66300366300365
1,0885	8,54700854700852
1,089	8,54700854700852
1,0895	13,4310134310134
1,09	8,54700854700852
1,0905	3,66300366300365
1,091	-1,22100122100122
1,0915	-1,22100122100122
1,092	3,66300366300365
1,0925	3,66300366300365
1,093	-1,22100122100122
1,0935	-1,22100122100122
1,094	3,66300366300365
1,0945	-1,22100122100122
1,095	-1,22100122100122
1,0955	-1,22100122100122
1,096	-6,10500610500608
1,0965	-6,10500610500608
1,097	-6,10500610500608
1,0975	-1,22100122100122
1,098	3,66300366300365
1,0985	3,66300366300365
1,099	3,66300366300365
1,0995	3,66300366300365
1,1	3,66300366300365
1,1005	3,66300366300365
1,101	3,66300366300365
1,1015	8,54700854700852
1,102	8,54700854700852
1,1025	8,54700854700852
1,103	8,54700854700852
1,1035	8,54700854700852
1,104	13,4310134310134
1,1045	18,3150183150183
1,105	18,3150183150183
1,1055	18,3150183150183
1,106	18,3150183150183
1,1065	8,54700854700852
1,107	8,54700854700852
1,1075	8,54700854700852
1,108	3,66300366300365
1,1085	3,66300366300365
1,109	3,66300366300365
1,1095	3,66300366300365
1,11	3,66300366300365
1,1105	-1,22100122100122
1,111	-6,10500610500608
1,1115	-6,10500610500608
1,112	-1,22100122100122
1,1125	3,66300366300365
1,113	3,66300366300365
1,1135	3,66300366300365
1,114	3,66300366300365
1,1145	-1,22100122100122
1,115	3,66300366300365
1,1155	3,66300366300365
1,116	3,66300366300365
1,1165	8,54700854700852
1,117	8,54700854700852
1,1175	3,66300366300365
1,118	3,66300366300365
1,1185	-1,22100122100122
1,119	3,66300366300365
1,1195	3,66300366300365
1,12	3,66300366300365
1,1205	8,54700854700852
1,121	8,54700854700852
1,1215	8,54700854700852
1,122	3,66300366300365
1,1225	8,54700854700852
1,123	3,66300366300365
1,1235	3,66300366300365
1,124	3,66300366300365
1,1245	-6,10500610500608
1,125	-6,10500610500608
1,1255	-6,10500610500608
1,126	3,66300366300365
1,1265	8,54700854700852
1,127	8,54700854700852
1,1275	8,54700854700852
1,128	3,66300366300365
1,1285	3,66300366300365
1,129	3,66300366300365
1,1295	18,3150183150183
1,13	28,083028083028
1,1305	37,8510378510377
1,131	37,8510378510377
1,1315	32,9670329670329
1,132	28,083028083028
1,1325	23,1990231990231
1,133	8,54700854700852
1,1335	-6,10500610500608
1,134	-15,8730158730158
1,1345	-25,6410256410256
1,135	-40,2930402930402
1,1355	-50,0610500610499
1,136	-57,3870573870572
1,1365	-40,2930402930402
1,137	-20,7570207570207
1,1375	-1,22100122100122
1,138	8,54700854700852
1,1385	18,3150183150183
1,139	28,083028083028
1,1395	28,083028083028
1,14	28,083028083028
1,1405	28,083028083028
1,141	18,3150183150183
1,1415	8,54700854700852
1,142	3,66300366300365
1,1425	3,66300366300365
1,143	-6,10500610500608
1,1435	-10,989010989011
1,144	-10,989010989011
1,1445	-10,989010989011
1,145	-10,989010989011
1,1455	-10,989010989011
1,146	-6,10500610500608
1,1465	-6,10500610500608
1,147	-1,22100122100122
1,1475	3,66300366300365
1,148	8,54700854700852
1,1485	13,4310134310134
1,149	3,66300366300365
1,1495	3,66300366300365
1,15	3,66300366300365
1,1505	8,54700854700852
1,151	18,3150183150183
1,1515	18,3150183150183
1,152	18,3150183150183
1,1525	13,4310134310134
1,153	8,54700854700852
1,1535	8,54700854700852
1,154	8,54700854700852
1,1545	13,4310134310134
1,155	8,54700854700852
1,1555	13,4310134310134
1,156	13,4310134310134
1,1565	18,3150183150183
1,157	13,4310134310134
1,1575	13,4310134310134
1,158	8,54700854700852
1,1585	3,66300366300365
1,159	3,66300366300365
1,1595	3,66300366300365
1,16	3,66300366300365
1,1605	3,66300366300365
1,161	3,66300366300365
1,1615	-1,22100122100122
1,162	3,66300366300365
1,1625	3,66300366300365
1,163	3,66300366300365
1,1635	-1,22100122100122
1,164	-1,22100122100122
1,1645	3,66300366300365
1,165	3,66300366300365
1,1655	3,66300366300365
1,166	3,66300366300365
1,1665	3,66300366300365
1,167	3,66300366300365
1,1675	3,66300366300365
1,168	3,66300366300365
1,1685	3,66300366300365
1,169	3,66300366300365
1,1695	3,66300366300365
1,17	3,66300366300365
1,1705	3,66300366300365
1,171	3,66300366300365
1,1715	3,66300366300365
1,172	-1,22100122100122
1,1725	-1,22100122100122
1,173	3,66300366300365
1,1735	-1,22100122100122
1,174	-10,989010989011
1,1745	-15,8730158730158
1,175	-15,8730158730158
1,1755	-10,989010989011
1,176	-10,989010989011
1,1765	-1,22100122100122
1,177	3,66300366300365
1,1775	23,1990231990231
1,178	37,8510378510377
1,1785	47,6190476190475
1,179	42,7350427350426
1,1795	18,3150183150183
1,18	3,66300366300365
1,1805	-1,22100122100122
1,181	-1,22100122100122
1,1815	3,66300366300365
1,182	3,66300366300365
1,1825	3,66300366300365
1,183	3,66300366300365
1,1835	3,66300366300365
1,184	3,66300366300365
1,1845	-1,22100122100122
1,185	3,66300366300365
1,1855	8,54700854700852
1,186	8,54700854700852
1,1865	3,66300366300365
1,187	3,66300366300365
1,1875	-6,10500610500608
1,188	-6,10500610500608
1,1885	-6,10500610500608
1,189	-1,22100122100122
1,1895	-1,22100122100122
1,19	-1,22100122100122
1,1905	-1,22100122100122
1,191	-1,22100122100122
1,1915	-1,22100122100122
1,192	3,66300366300365
1,1925	-1,22100122100122
1,193	3,66300366300365
1,1935	3,66300366300365
1,194	3,66300366300365
1,1945	3,66300366300365
1,195	-1,22100122100122
1,1955	-6,10500610500608
1,196	-6,10500610500608
1,1965	-1,22100122100122
1,197	3,66300366300365
1,1975	8,54700854700852
1,198	3,66300366300365
1,1985	3,66300366300365
1,199	3,66300366300365
1,1995	3,66300366300365
1,2	8,54700854700852
1,2005	8,54700854700852
1,201	3,66300366300365
1,2015	-1,22100122100122
1,202	3,66300366300365
1,2025	8,54700854700852
1,203	8,54700854700852
1,2035	13,4310134310134
1,204	8,54700854700852
1,2045	3,66300366300365
1,205	3,66300366300365
1,2055	3,66300366300365
1,206	3,66300366300365
1,2065	3,66300366300365
1,207	8,54700854700852
1,2075	13,4310134310134
1,208	23,1990231990231
1,2085	23,1990231990231
1,209	28,083028083028
1,2095	28,083028083028
1,21	23,1990231990231
1,2105	13,4310134310134
1,211	8,54700854700852
1,2115	-1,22100122100122
1,212	-10,989010989011
1,2125	-10,989010989011
1,213	-10,989010989011
1,2135	-10,989010989011
1,214	-20,7570207570207
1,2145	-25,6410256410256
1,215	-25,6410256410256
1,2155	-25,6410256410256
1,216	-20,7570207570207
1,2165	-10,989010989011
1,217	-10,989010989011
1,2175	-6,10500610500608
1,218	3,66300366300365
1,2185	3,66300366300365
1,219	3,66300366300365
1,2195	-1,22100122100122
1,22	3,66300366300365
1,2205	13,4310134310134
1,221	28,083028083028
1,2215	28,083028083028
1,222	28,083028083028
1,2225	18,3150183150183
1,223	13,4310134310134
1,2235	8,54700854700852
1,224	8,54700854700852
1,2245	8,54700854700852
1,225	8,54700854700852
1,2255	8,54700854700852
1,226	8,54700854700852
1,2265	8,54700854700852
1,227	3,66300366300365
1,2275	-1,22100122100122
1,228	-1,22100122100122
1,2285	3,66300366300365
1,229	3,66300366300365
1,2295	8,54700854700852
1,23	13,4310134310134
1,2305	13,4310134310134
1,231	13,4310134310134
1,2315	13,4310134310134
1,232	8,54700854700852
1,2325	8,54700854700852
1,233	8,54700854700852
1,2335	18,3150183150183
1,234	32,9670329670329
1,2345	37,8510378510377
1,235	32,9670329670329
1,2355	28,083028083028
1,236	23,1990231990231
1,2365	8,54700854700852
1,237	-6,10500610500608
1,2375	-15,8730158730158
1,238	-20,7570207570207
1,2385	-25,6410256410256
1,239	-30,5250305250304
1,2395	-45,177045177045
1,24	-45,177045177045
1,2405	-40,2930402930402
1,241	-30,5250305250304
1,2415	-20,7570207570207
1,242	-10,989010989011
1,2425	-1,22100122100122
1,243	8,54700854700852
1,2435	18,3150183150183
1,244	23,1990231990231
1,2445	23,1990231990231
1,245	23,1990231990231
1,2455	23,1990231990231
1,246	18,3150183150183
1,2465	18,3150183150183
1,247	18,3150183150183
1,2475	18,3150183150183
1,248	13,4310134310134
1,2485	13,4310134310134
1,249	13,4310134310134
1,2495	8,54700854700852
1,25	8,54700854700852
1,2505	3,66300366300365
1,251	3,66300366300365
1,2515	3,66300366300365
1,252	8,54700854700852
1,2525	3,66300366300365
1,253	8,54700854700852
1,2535	8,54700854700852
1,254	3,66300366300365
1,2545	-1,22100122100122
1,255	-6,10500610500608
1,2555	-6,10500610500608
1,256	-6,10500610500608
1,2565	-6,10500610500608
1,257	-1,22100122100122
1,2575	8,54700854700852
1,258	13,4310134310134
1,2585	13,4310134310134
1,259	8,54700854700852
1,2595	8,54700854700852
1,26	8,54700854700852
1,2605	8,54700854700852
1,261	8,54700854700852
1,2615	18,3150183150183
1,262	28,083028083028
1,2625	28,083028083028
1,263	28,083028083028
1,2635	28,083028083028
1,264	18,3150183150183
1,2645	3,66300366300365
1,265	-10,989010989011
1,2655	-25,6410256410256
1,266	-30,5250305250304
1,2665	-30,5250305250304
1,267	-30,5250305250304
1,2675	-30,5250305250304
1,268	-20,7570207570207
1,2685	-10,989010989011
1,269	13,4310134310134
1,2695	28,083028083028
1,27	32,9670329670329
1,2705	18,3150183150183
1,271	8,54700854700852
1,2715	3,66300366300365
1,272	3,66300366300365
1,2725	3,66300366300365
1,273	8,54700854700852
1,2735	18,3150183150183
1,274	18,3150183150183
1,2745	13,4310134310134
1,275	8,54700854700852
1,2755	8,54700854700852
1,276	3,66300366300365
1,2765	3,66300366300365
1,277	3,66300366300365
1,2775	-1,22100122100122
1,278	-1,22100122100122
1,2785	-1,22100122100122
1,279	-1,22100122100122
1,2795	3,66300366300365
1,28	-1,22100122100122
1,2805	-1,22100122100122
1,281	-1,22100122100122
1,2815	3,66300366300365
1,282	3,66300366300365
1,2825	-1,22100122100122
1,283	3,66300366300365
1,2835	8,54700854700852
1,284	18,3150183150183
1,2845	13,4310134310134
1,285	13,4310134310134
1,2855	13,4310134310134
1,286	8,54700854700852
1,2865	8,54700854700852
1,287	3,66300366300365
1,2875	3,66300366300365
1,288	3,66300366300365
1,2885	3,66300366300365
1,289	-1,22100122100122
1,2895	-1,22100122100122
1,29	-6,10500610500608
1,2905	-10,989010989011
1,291	-6,10500610500608
1,2915	-6,10500610500608
1,292	3,66300366300365
1,2925	8,54700854700852
1,293	8,54700854700852
1,2935	13,4310134310134
1,294	8,54700854700852
1,2945	8,54700854700852
1,295	3,66300366300365
1,2955	3,66300366300365
1,296	-1,22100122100122
1,2965	-1,22100122100122
1,297	-6,10500610500608
1,2975	-6,10500610500608
1,298	-1,22100122100122
1,2985	3,66300366300365
1,299	3,66300366300365
1,2995	8,54700854700852
1,3	8,54700854700852
1,3005	8,54700854700852
1,301	3,66300366300365
1,3015	3,66300366300365
1,302	3,66300366300365
1,3025	3,66300366300365
1,303	8,54700854700852
1,3035	8,54700854700852
1,304	13,4310134310134
1,3045	13,4310134310134
1,305	13,4310134310134
1,3055	8,54700854700852
1,306	8,54700854700852
1,3065	8,54700854700852
1,307	3,66300366300365
1,3075	3,66300366300365
1,308	-1,22100122100122
1,3085	-1,22100122100122
1,309	-1,22100122100122
1,3095	-1,22100122100122
1,31	3,66300366300365
1,3105	3,66300366300365
1,311	3,66300366300365
1,3115	3,66300366300365
1,312	3,66300366300365
1,3125	3,66300366300365
1,313	3,66300366300365
1,3135	3,66300366300365
1,314	3,66300366300365
1,3145	3,66300366300365
1,315	3,66300366300365
1,3155	3,66300366300365
1,316	3,66300366300365
1,3165	3,66300366300365
1,317	3,66300366300365
1,3175	3,66300366300365
1,318	3,66300366300365
1,3185	3,66300366300365
1,319	8,54700854700852
1,3195	8,54700854700852
1,32	8,54700854700852
1,3205	8,54700854700852
1,321	3,66300366300365
1,3215	3,66300366300365
1,322	3,66300366300365
1,3225	3,66300366300365
1,323	3,66300366300365
1,3235	3,66300366300365
1,324	8,54700854700852
1,3245	8,54700854700852
1,325	3,66300366300365
1,3255	3,66300366300365
1,326	3,66300366300365
1,3265	3,66300366300365
1,327	-1,22100122100122
1,3275	-1,22100122100122
1,328	-1,22100122100122
1,3285	-1,22100122100122
1,329	-1,22100122100122
1,3295	-6,10500610500608
1,33	-10,989010989011
1,3305	-10,989010989011
1,331	-6,10500610500608
1,3315	-6,10500610500608
1,332	3,66300366300365
1,3325	18,3150183150183
1,333	23,1990231990231
1,3335	23,1990231990231
1,334	23,1990231990231
1,3345	18,3150183150183
1,335	18,3150183150183
1,3355	13,4310134310134
1,336	13,4310134310134
1,3365	8,54700854700852
1,337	8,54700854700852
1,3375	3,66300366300365
1,338	-1,22100122100122
1,3385	-6,10500610500608
1,339	-6,10500610500608
1,3395	-6,10500610500608
1,34	-6,10500610500608
1,3405	-1,22100122100122
1,341	3,66300366300365
1,3415	3,66300366300365
1,342	3,66300366300365
1,3425	3,66300366300365
1,343	3,66300366300365
1,3435	-6,10500610500608
1,344	-6,10500610500608
1,3445	-1,22100122100122
1,345	3,66300366300365
1,3455	3,66300366300365
1,346	8,54700854700852
1,3465	28,083028083028
1,347	42,7350427350426
1,3475	42,7350427350426
1,348	37,8510378510377
1,3485	28,083028083028
1,349	18,3150183150183
1,3495	3,66300366300365
1,35	-6,10500610500608
1,3505	-20,7570207570207
1,351	-25,6410256410256
1,3515	-30,5250305250304
1,352	-40,2930402930402
1,3525	-50,0610500610499
1,353	-50,0610500610499
1,3535	-45,177045177045
1,354	-30,5250305250304
1,3545	-15,8730158730158
1,355	-6,10500610500608
1,3555	3,66300366300365
1,356	8,54700854700852
1,3565	18,3150183150183
1,357	18,3150183150183
1,3575	23,1990231990231
1,358	23,1990231990231
1,3585	23,1990231990231
1,359	18,3150183150183
1,3595	18,3150183150183
1,36	18,3150183150183
1,3605	18,3150183150183
1,361	13,4310134310134
1,3615	18,3150183150183
1,362	13,4310134310134
1,3625	13,4310134310134
1,363	13,4310134310134
1,3635	18,3150183150183
1,364	13,4310134310134
1,3645	18,3150183150183
1,365	18,3150183150183
1,3655	18,3150183150183
1,366	13,4310134310134
1,3665	8,54700854700852
1,367	18,3150183150183
1,3675	23,1990231990231
1,368	28,083028083028
1,3685	32,9670329670329
1,369	28,083028083028
1,3695	18,3150183150183
1,37	3,66300366300365
1,3705	-10,989010989011
1,371	-20,7570207570207
1,3715	-30,5250305250304
1,372	-40,2930402930402
1,3725	-45,177045177045
1,373	-40,2930402930402
1,3735	-40,2930402930402
1,374	-30,5250305250304
1,3745	-25,6410256410256
1,375	-15,8730158730158
1,3755	-6,10500610500608
1,376	3,66300366300365
1,3765	18,3150183150183
1,377	23,1990231990231
1,3775	23,1990231990231
1,378	23,1990231990231
1,3785	18,3150183150183
1,379	18,3150183150183
1,3795	13,4310134310134
1,38	13,4310134310134
1,3805	13,4310134310134
1,381	18,3150183150183
1,3815	18,3150183150183
1,382	18,3150183150183
1,3825	13,4310134310134
1,383	13,4310134310134
1,3835	13,4310134310134
1,384	8,54700854700852
1,3845	8,54700854700852
1,385	8,54700854700852
1,3855	8,54700854700852
1,386	8,54700854700852
1,3865	3,66300366300365
1,387	3,66300366300365
1,3875	13,4310134310134
1,388	18,3150183150183
1,3885	23,1990231990231
1,389	23,1990231990231
1,3895	23,1990231990231
1,39	13,4310134310134
1,3905	8,54700854700852
1,391	-1,22100122100122
1,3915	-6,10500610500608
1,392	-10,989010989011
1,3925	-10,989010989011
1,393	-15,8730158730158
1,3935	-20,7570207570207
1,394	-15,8730158730158
1,3945	-15,8730158730158
1,395	-10,989010989011
1,3955	-10,989010989011
1,396	-6,10500610500608
1,3965	-1,22100122100122
1,397	3,66300366300365
1,3975	8,54700854700852
1,398	18,3150183150183
1,3985	23,1990231990231
1,399	23,1990231990231
1,3995	18,3150183150183
1,4	18,3150183150183
1,4005	8,54700854700852
1,401	8,54700854700852
1,4015	-1,22100122100122
1,402	-6,10500610500608
1,4025	-10,989010989011
1,403	-10,989010989011
1,4035	-6,10500610500608
1,404	-1,22100122100122
1,4045	3,66300366300365
1,405	8,54700854700852
1,4055	3,66300366300365
1,406	3,66300366300365
1,4065	3,66300366300365
1,407	3,66300366300365
1,4075	3,66300366300365
1,408	3,66300366300365
1,4085	3,66300366300365
1,409	8,54700854700852
1,4095	8,54700854700852
1,41	8,54700854700852
1,4105	8,54700854700852
1,411	8,54700854700852
1,4115	8,54700854700852
1,412	8,54700854700852
1,4125	3,66300366300365
1,413	3,66300366300365
1,4135	8,54700854700852
1,414	3,66300366300365
1,4145	3,66300366300365
1,415	-6,10500610500608
1,4155	3,66300366300365
1,416	3,66300366300365
1,4165	3,66300366300365
1,417	3,66300366300365
1,4175	3,66300366300365
1,418	3,66300366300365
1,4185	-1,22100122100122
1,419	-1,22100122100122
1,4195	3,66300366300365
1,42	3,66300366300365
1,4205	3,66300366300365
1,421	3,66300366300365
1,4215	3,66300366300365
1,422	3,66300366300365
1,4225	3,66300366300365
1,423	3,66300366300365
1,4235	3,66300366300365
1,424	3,66300366300365
1,4245	8,54700854700852
1,425	8,54700854700852
1,4255	18,3150183150183
1,426	13,4310134310134
1,4265	8,54700854700852
1,427	8,54700854700852
1,4275	8,54700854700852
1,428	8,54700854700852
1,4285	8,54700854700852
1,429	3,66300366300365
1,4295	-1,22100122100122
1,43	-1,22100122100122
1,4305	-6,10500610500608
1,431	-6,10500610500608
1,4315	-1,22100122100122
1,432	-1,22100122100122
1,4325	3,66300366300365
1,433	3,66300366300365
1,4335	3,66300366300365
1,434	3,66300366300365
1,4345	3,66300366300365
1,435	3,66300366300365
1,4355	3,66300366300365
1,436	3,66300366300365
1,4365	3,66300366300365
1,437	3,66300366300365
1,4375	-1,22100122100122
1,438	-10,989010989011
1,4385	-10,989010989011
1,439	-10,989010989011
1,4395	-10,989010989011
1,44	-10,989010989011
1,4405	-6,10500610500608
1,441	-1,22100122100122
1,4415	18,3150183150183
1,442	37,8510378510377
1,4425	52,5030525030523
1,443	52,5030525030523
1,4435	32,9670329670329
1,444	13,4310134310134
1,4445	3,66300366300365
1,445	3,66300366300365
1,4455	3,66300366300365
1,446	8,54700854700852
1,4465	8,54700854700852
1,447	8,54700854700852
1,4475	8,54700854700852
1,448	3,66300366300365
1,4485	3,66300366300365
1,449	-1,22100122100122
1,4495	-6,10500610500608
1,45	-10,989010989011
1,4505	-6,10500610500608
1,451	-6,10500610500608
1,4515	-6,10500610500608
1,452	-6,10500610500608
1,4525	-6,10500610500608
1,453	-6,10500610500608
1,4535	-6,10500610500608
1,454	-1,22100122100122
1,4545	-1,22100122100122
1,455	-1,22100122100122
1,4555	-1,22100122100122
1,456	3,66300366300365
1,4565	3,66300366300365
1,457	3,66300366300365
1,4575	8,54700854700852
1,458	8,54700854700852
1,4585	8,54700854700852
1,459	8,54700854700852
1,4595	8,54700854700852
1,46	8,54700854700852
1,4605	8,54700854700852
1,461	3,66300366300365
1,4615	-6,10500610500608
1,462	-1,22100122100122
1,4625	-1,22100122100122
1,463	-1,22100122100122
1,4635	-1,22100122100122
1,464	3,66300366300365
1,4645	8,54700854700852
1,465	8,54700854700852
1,4655	8,54700854700852
1,466	8,54700854700852
1,4665	8,54700854700852
1,467	8,54700854700852
1,4675	8,54700854700852
1,468	3,66300366300365
1,4685	3,66300366300365
1,469	3,66300366300365
1,4695	3,66300366300365
1,47	3,66300366300365
1,4705	-1,22100122100122
1,471	-6,10500610500608
1,4715	-10,989010989011
1,472	-10,989010989011
1,4725	-1,22100122100122
1,473	3,66300366300365
1,4735	8,54700854700852
1,474	8,54700854700852
1,4745	8,54700854700852
1,475	8,54700854700852
1,4755	8,54700854700852
1,476	8,54700854700852
1,4765	18,3150183150183
1,477	32,9670329670329
1,4775	42,7350427350426
1,478	42,7350427350426
1,4785	32,9670329670329
1,479	23,1990231990231
1,4795	18,3150183150183
1,48	3,66300366300365
1,4805	-6,10500610500608
1,481	-20,7570207570207
1,4815	-25,6410256410256
1,482	-35,4090354090353
1,4825	-50,0610500610499
1,483	-57,3870573870572
1,4835	-57,3870573870572
1,484	-45,177045177045
1,4845	-30,5250305250304
1,485	-10,989010989011
1,4855	3,66300366300365
1,486	8,54700854700852
1,4865	13,4310134310134
1,487	18,3150183150183
1,4875	18,3150183150183
1,488	18,3150183150183
1,4885	18,3150183150183
1,489	18,3150183150183
1,4895	18,3150183150183
1,49	18,3150183150183
1,4905	18,3150183150183
1,491	18,3150183150183
1,4915	18,3150183150183
1,492	18,3150183150183
1,4925	18,3150183150183
1,493	18,3150183150183
1,4935	18,3150183150183
1,494	18,3150183150183
1,4945	13,4310134310134
1,495	8,54700854700852
1,4955	8,54700854700852
1,496	8,54700854700852
1,4965	8,54700854700852
1,497	8,54700854700852
1,4975	8,54700854700852
1,498	3,66300366300365
1,4985	3,66300366300365
1,499	3,66300366300365
1,4995	3,66300366300365
1,5	3,66300366300365
1,5005	8,54700854700852
1,501	8,54700854700852
1,5015	8,54700854700852
1,502	8,54700854700852
1,5025	3,66300366300365
1,503	8,54700854700852
1,5035	3,66300366300365
1,504	3,66300366300365
1,5045	3,66300366300365
1,505	3,66300366300365
1,5055	3,66300366300365
1,506	-1,22100122100122
1,5065	3,66300366300365
1,507	3,66300366300365
1,5075	3,66300366300365
1,508	3,66300366300365
1,5085	8,54700854700852
1,509	13,4310134310134
1,5095	13,4310134310134
1,51	18,3150183150183
1,5105	8,54700854700852
1,511	8,54700854700852
1,5115	3,66300366300365
1,512	-1,22100122100122
1,5125	-6,10500610500608
1,513	-10,989010989011
1,5135	-10,989010989011
1,514	-10,989010989011
1,5145	-10,989010989011
1,515	-10,989010989011
1,5155	-15,8730158730158
1,516	-10,989010989011
1,5165	-10,989010989011
1,517	-6,10500610500608
1,5175	-1,22100122100122
1,518	3,66300366300365
1,5185	3,66300366300365
1,519	8,54700854700852
1,5195	8,54700854700852
1,52	8,54700854700852
1,5205	8,54700854700852
1,521	8,54700854700852
1,5215	3,66300366300365
1,522	3,66300366300365
1,5225	3,66300366300365
1,523	3,66300366300365
1,5235	8,54700854700852
1,524	8,54700854700852
1,5245	18,3150183150183
1,525	8,54700854700852
1,5255	3,66300366300365
1,526	3,66300366300365
1,5265	3,66300366300365
1,527	3,66300366300365
1,5275	3,66300366300365
1,528	3,66300366300365
1,5285	13,4310134310134
1,529	18,3150183150183
1,5295	13,4310134310134
1,53	8,54700854700852
1,5305	3,66300366300365
1,531	3,66300366300365
1,5315	3,66300366300365
1,532	3,66300366300365
1,5325	3,66300366300365
1,533	-6,10500610500608
1,5335	-1,22100122100122
1,534	-1,22100122100122
1,5345	-1,22100122100122
1,535	-1,22100122100122
1,5355	-1,22100122100122
1,536	3,66300366300365
1,5365	3,66300366300365
1,537	3,66300366300365
1,5375	3,66300366300365
1,538	8,54700854700852
1,5385	8,54700854700852
1,539	8,54700854700852
1,5395	3,66300366300365
1,54	8,54700854700852
1,5405	13,4310134310134
1,541	13,4310134310134
1,5415	13,4310134310134
1,542	8,54700854700852
1,5425	3,66300366300365
1,543	-1,22100122100122
1,5435	-1,22100122100122
1,544	-6,10500610500608
1,5445	-1,22100122100122
1,545	-1,22100122100122
1,5455	-1,22100122100122
1,546	-1,22100122100122
1,5465	-1,22100122100122
1,547	-1,22100122100122
1,5475	3,66300366300365
1,548	-1,22100122100122
1,5485	8,54700854700852
1,549	8,54700854700852
1,5495	8,54700854700852
1,55	8,54700854700852
1,5505	18,3150183150183
1,551	18,3150183150183
1,5515	18,3150183150183
1,552	8,54700854700852
1,5525	-1,22100122100122
1,553	-10,989010989011
1,5535	-10,989010989011
1,554	-10,989010989011
1,5545	-10,989010989011
1,555	-10,989010989011
1,5555	-10,989010989011
1,556	-10,989010989011
1,5565	-10,989010989011
1,557	-1,22100122100122
1,5575	3,66300366300365
1,558	3,66300366300365
1,5585	8,54700854700852
1,559	18,3150183150183
1,5595	18,3150183150183
1,56	13,4310134310134
1,5605	8,54700854700852
1,561	8,54700854700852
1,5615	8,54700854700852
1,562	8,54700854700852
1,5625	3,66300366300365
1,563	3,66300366300365
1,5635	3,66300366300365
1,564	3,66300366300365
1,5645	3,66300366300365
1,565	-1,22100122100122
1,5655	3,66300366300365
1,566	3,66300366300365
1,5665	3,66300366300365
1,567	8,54700854700852
1,5675	8,54700854700852
1,568	8,54700854700852
1,5685	8,54700854700852
1,569	8,54700854700852
1,5695	8,54700854700852
1,57	13,4310134310134
1,5705	18,3150183150183
1,571	13,4310134310134
1,5715	8,54700854700852
1,572	8,54700854700852
1,5725	3,66300366300365
1,573	-1,22100122100122
1,5735	-6,10500610500608
1,574	-6,10500610500608
1,5745	-6,10500610500608
1,575	3,66300366300365
1,5755	3,66300366300365
1,576	3,66300366300365
1,5765	3,66300366300365
1,577	3,66300366300365
1,5775	3,66300366300365
1,578	3,66300366300365
1,5785	8,54700854700852
1,579	8,54700854700852
1,5795	8,54700854700852
1,58	8,54700854700852
1,5805	8,54700854700852
1,581	3,66300366300365
1,5815	3,66300366300365
1,582	-1,22100122100122
1,5825	-6,10500610500608
1,583	-6,10500610500608
1,5835	-10,989010989011
1,584	-10,989010989011
1,5845	-10,989010989011
1,585	-10,989010989011
1,5855	-10,989010989011
1,586	-10,989010989011
1,5865	-6,10500610500608
1,587	3,66300366300365
1,5875	3,66300366300365
1,588	3,66300366300365
1,5885	8,54700854700852
1,589	8,54700854700852
1,5895	8,54700854700852
1,59	3,66300366300365
1,5905	8,54700854700852
1,591	8,54700854700852
1,5915	8,54700854700852
1,592	8,54700854700852
1,5925	8,54700854700852
1,593	8,54700854700852
1,5935	8,54700854700852
1,594	3,66300366300365
1,5945	8,54700854700852
1,595	3,66300366300365
1,5955	3,66300366300365
1,596	3,66300366300365
1,5965	3,66300366300365
1,597	-6,10500610500608
1,5975	-10,989010989011
1,598	-10,989010989011
1,5985	-10,989010989011
1,599	-6,10500610500608
1,5995	-1,22100122100122
1,6	3,66300366300365
1,6005	13,4310134310134
1,601	32,9670329670329
1,6015	64,7130647130645
1,602	69,5970695970694
1,6025	59,8290598290596
1,603	28,083028083028
1,6035	8,54700854700852
1,604	-1,22100122100122
1,6045	-6,10500610500608
1,605	-6,10500610500608
1,6055	-1,22100122100122
1,606	-1,22100122100122
1,6065	3,66300366300365
1,607	-1,22100122100122
1,6075	-6,10500610500608
1,608	-10,989010989011
1,6085	-6,10500610500608
1,609	-6,10500610500608
1,6095	-10,989010989011
1,61	-10,989010989011
1,6105	-10,989010989011
1,611	-10,989010989011
1,6115	-10,989010989011
1,612	-10,989010989011
1,6125	-6,10500610500608
1,613	-6,10500610500608
1,6135	-1,22100122100122
1,614	3,66300366300365
1,6145	8,54700854700852
1,615	8,54700854700852
1,6155	8,54700854700852
1,616	3,66300366300365
1,6165	-1,22100122100122
1,617	-6,10500610500608
1,6175	-6,10500610500608
1,618	3,66300366300365
1,6185	8,54700854700852
1,619	18,3150183150183
1,6195	18,3150183150183
1,62	13,4310134310134
1,6205	8,54700854700852
1,621	3,66300366300365
1,6215	3,66300366300365
1,622	3,66300366300365
1,6225	3,66300366300365
1,623	-1,22100122100122
1,6235	3,66300366300365
1,624	3,66300366300365
1,6245	3,66300366300365
1,625	8,54700854700852
1,6255	8,54700854700852
1,626	8,54700854700852
1,6265	8,54700854700852
1,627	3,66300366300365
1,6275	3,66300366300365
1,628	-1,22100122100122
1,6285	-1,22100122100122
1,629	-1,22100122100122
1,6295	-1,22100122100122
1,63	3,66300366300365
1,6305	3,66300366300365
1,631	3,66300366300365
1,6315	-1,22100122100122
1,632	3,66300366300365
1,6325	3,66300366300365
1,633	3,66300366300365
1,6335	3,66300366300365
1,634	3,66300366300365
1,6345	3,66300366300365
1,635	8,54700854700852
1,6355	8,54700854700852
1,636	8,54700854700852
1,6365	8,54700854700852
1,637	13,4310134310134
1,6375	18,3150183150183
1,638	28,083028083028
1,6385	37,8510378510377
1,639	37,8510378510377
1,6395	28,083028083028
1,64	23,1990231990231
1,6405	8,54700854700852
1,641	-1,22100122100122
1,6415	-10,989010989011
1,642	-20,7570207570207
1,6425	-25,6410256410256
1,643	-30,5250305250304
1,6435	-40,2930402930402
1,644	-45,177045177045
1,6445	-35,4090354090353
1,645	-25,6410256410256
1,6455	-15,8730158730158
1,646	-10,989010989011
1,6465	-1,22100122100122
1,647	3,66300366300365
1,6475	13,4310134310134
1,648	23,1990231990231
1,6485	23,1990231990231
1,649	28,083028083028
1,6495	23,1990231990231
1,65	23,1990231990231
1,6505	18,3150183150183
1,651	18,3150183150183
1,6515	13,4310134310134
1,652	18,3150183150183
1,6525	13,4310134310134
1,653	18,3150183150183
1,6535	13,4310134310134
1,654	18,3150183150183
1,6545	13,4310134310134
1,655	8,54700854700852
1,6555	3,66300366300365
1,656	3,66300366300365
1,6565	8,54700854700852
1,657	8,54700854700852
1,6575	3,66300366300365
1,658	8,54700854700852
1,6585	3,66300366300365
1,659	3,66300366300365
1,6595	3,66300366300365
1,66	3,66300366300365
1,6605	3,66300366300365
1,661	3,66300366300365
1,6615	8,54700854700852
1,662	3,66300366300365
1,6625	3,66300366300365
1,663	-1,22100122100122
1,6635	-1,22100122100122
1,664	-1,22100122100122
1,6645	-1,22100122100122
1,665	-6,10500610500608
1,6655	-6,10500610500608
1,666	-1,22100122100122
1,6665	8,54700854700852
1,667	18,3150183150183
1,6675	18,3150183150183
1,668	13,4310134310134
1,6685	13,4310134310134
1,669	8,54700854700852
1,6695	8,54700854700852
1,67	8,54700854700852
1,6705	8,54700854700852
1,671	3,66300366300365
1,6715	-1,22100122100122
1,672	-1,22100122100122
1,6725	-1,22100122100122
1,673	-6,10500610500608
1,6735	-10,989010989011
1,674	-10,989010989011
1,6745	-10,989010989011
1,675	-10,989010989011
1,6755	-6,10500610500608
1,676	-6,10500610500608
1,6765	-1,22100122100122
1,677	-1,22100122100122
1,6775	-1,22100122100122
1,678	3,66300366300365
1,6785	-1,22100122100122
1,679	3,66300366300365
1,6795	3,66300366300365
1,68	8,54700854700852
1,6805	8,54700854700852
1,681	3,66300366300365
1,6815	3,66300366300365
1,682	8,54700854700852
1,6825	8,54700854700852
1,683	8,54700854700852
1,6835	13,4310134310134
1,684	13,4310134310134
1,6845	8,54700854700852
1,685	8,54700854700852
1,6855	8,54700854700852
1,686	3,66300366300365
1,6865	3,66300366300365
1,687	3,66300366300365
1,6875	3,66300366300365
1,688	3,66300366300365
1,6885	3,66300366300365
1,689	3,66300366300365
1,6895	-1,22100122100122
1,69	-1,22100122100122
1,6905	3,66300366300365
1,691	8,54700854700852
1,6915	8,54700854700852
1,692	3,66300366300365
1,6925	3,66300366300365
1,693	8,54700854700852
1,6935	3,66300366300365
1,694	3,66300366300365
1,6945	3,66300366300365
1,695	-1,22100122100122
1,6955	3,66300366300365
1,696	3,66300366300365
1,6965	8,54700854700852
1,697	8,54700854700852
1,6975	8,54700854700852
1,698	3,66300366300365
1,6985	3,66300366300365
1,699	3,66300366300365
1,6995	3,66300366300365
1,7	3,66300366300365
1,7005	3,66300366300365
1,701	3,66300366300365
1,7015	8,54700854700852
1,702	8,54700854700852
1,7025	3,66300366300365
1,703	3,66300366300365
1,7035	3,66300366300365
1,704	8,54700854700852
1,7045	3,66300366300365
1,705	3,66300366300365
1,7055	3,66300366300365
1,706	-1,22100122100122
1,7065	-6,10500610500608
1,707	-1,22100122100122
1,7075	3,66300366300365
1,708	3,66300366300365
1,7085	8,54700854700852
1,709	8,54700854700852
1,7095	8,54700854700852
1,71	8,54700854700852
1,7105	3,66300366300365
1,711	3,66300366300365
1,7115	3,66300366300365
1,712	3,66300366300365
1,7125	3,66300366300365
1,713	3,66300366300365
1,7135	-1,22100122100122
1,714	3,66300366300365
1,7145	3,66300366300365
1,715	3,66300366300365
1,7155	3,66300366300365
1,716	3,66300366300365
1,7165	3,66300366300365
1,717	3,66300366300365
1,7175	3,66300366300365
1,718	3,66300366300365
1,7185	3,66300366300365
1,719	3,66300366300365
1,7195	3,66300366300365
1,72	3,66300366300365
1,7205	3,66300366300365
1,721	3,66300366300365
1,7215	3,66300366300365
1,722	-1,22100122100122
1,7225	-6,10500610500608
1,723	-10,989010989011
1,7235	-1,22100122100122
1,724	3,66300366300365
1,7245	3,66300366300365
1,725	8,54700854700852
1,7255	8,54700854700852
1,726	3,66300366300365
1,7265	3,66300366300365
1,727	8,54700854700852
1,7275	8,54700854700852
1,728	8,54700854700852
1,7285	8,54700854700852
1,729	8,54700854700852
1,7295	8,54700854700852
1,73	8,54700854700852
1,7305	8,54700854700852
1,731	3,66300366300365
1,7315	8,54700854700852
1,732	8,54700854700852
1,7325	8,54700854700852
1,733	8,54700854700852
1,7335	8,54700854700852
1,734	3,66300366300365
1,7345	-1,22100122100122
1,735	-1,22100122100122
1,7355	3,66300366300365
1,736	3,66300366300365
1,7365	3,66300366300365
1,737	-1,22100122100122
1,7375	-1,22100122100122
1,738	-1,22100122100122
1,7385	3,66300366300365
1,739	-1,22100122100122
1,7395	-1,22100122100122
1,74	3,66300366300365
1,7405	-1,22100122100122
1,741	-1,22100122100122
1,7415	3,66300366300365
1,742	3,66300366300365
1,7425	3,66300366300365
1,743	3,66300366300365
1,7435	3,66300366300365
1,744	3,66300366300365
1,7445	8,54700854700852
1,745	13,4310134310134
1,7455	18,3150183150183
1,746	18,3150183150183
1,7465	18,3150183150183
1,747	13,4310134310134
1,7475	8,54700854700852
1,748	3,66300366300365
1,7485	3,66300366300365
1,749	3,66300366300365
1,7495	-1,22100122100122
1,75	-1,22100122100122
1,7505	-1,22100122100122
1,751	-1,22100122100122
1,7515	-1,22100122100122
1,752	-6,10500610500608
1,7525	-1,22100122100122
1,753	-1,22100122100122
1,7535	3,66300366300365
1,754	3,66300366300365
1,7545	-1,22100122100122
1,755	3,66300366300365
1,7555	-1,22100122100122
1,756	3,66300366300365
1,7565	3,66300366300365
1,757	3,66300366300365
1,7575	3,66300366300365
1,758	3,66300366300365
1,7585	-1,22100122100122
1,759	3,66300366300365
1,7595	8,54700854700852
1,76	13,4310134310134
1,7605	18,3150183150183
1,761	13,4310134310134
1,7615	8,54700854700852
1,762	8,54700854700852
1,7625	3,66300366300365
1,763	3,66300366300365
1,7635	3,66300366300365
1,764	3,66300366300365
1,7645	3,66300366300365
1,765	-1,22100122100122
1,7655	-1,22100122100122
1,766	-1,22100122100122
1,7665	3,66300366300365
1,767	-1,22100122100122
1,7675	-1,22100122100122
1,768	-1,22100122100122
1,7685	-1,22100122100122
1,769	3,66300366300365
1,7695	3,66300366300365
1,77	3,66300366300365
1,7705	3,66300366300365
1,771	3,66300366300365
1,7715	3,66300366300365
1,772	3,66300366300365
1,7725	3,66300366300365
1,773	3,66300366300365
1,7735	3,66300366300365
1,774	3,66300366300365
1,7745	3,66300366300365
1,775	3,66300366300365
1,7755	3,66300366300365
1,776	3,66300366300365
1,7765	3,66300366300365
1,777	3,66300366300365
1,7775	3,66300366300365
1,778	8,54700854700852
1,7785	8,54700854700852
1,779	8,54700854700852
1,7795	3,66300366300365
1,78	3,66300366300365
1,7805	3,66300366300365
1,781	3,66300366300365
1,7815	3,66300366300365
1,782	3,66300366300365
1,7825	3,66300366300365
1,783	3,66300366300365
1,7835	3,66300366300365
1,784	3,66300366300365
1,7845	3,66300366300365
1,785	3,66300366300365
1,7855	3,66300366300365
1,786	3,66300366300365
1,7865	3,66300366300365
1,787	8,54700854700852
1,7875	3,66300366300365
1,788	3,66300366300365
1,7885	3,66300366300365
1,789	3,66300366300365
1,7895	3,66300366300365
1,79	3,66300366300365
1,7905	3,66300366300365
1,791	3,66300366300365
1,7915	3,66300366300365
1,792	3,66300366300365
1,7925	3,66300366300365
1,793	3,66300366300365
1,7935	3,66300366300365
1,794	3,66300366300365
1,7945	-1,22100122100122
1,795	-1,22100122100122
1,7955	-1,22100122100122
1,796	8,54700854700852
1,7965	18,3150183150183
1,797	23,1990231990231
1,7975	23,1990231990231
1,798	13,4310134310134
1,7985	3,66300366300365
1,799	3,66300366300365
1,7995	-1,22100122100122
1,8	-1,22100122100122
1,8005	-1,22100122100122
1,801	-6,10500610500608
1,8015	-6,10500610500608
1,802	-6,10500610500608
1,8025	-1,22100122100122
1,803	8,54700854700852
1,8035	8,54700854700852
1,804	8,54700854700852
1,8045	8,54700854700852
1,805	8,54700854700852
1,8055	8,54700854700852
1,806	3,66300366300365
1,8065	-1,22100122100122
1,807	-1,22100122100122
1,8075	3,66300366300365
1,808	8,54700854700852
1,8085	13,4310134310134
1,809	13,4310134310134
1,8095	8,54700854700852
1,81	13,4310134310134
1,8105	13,4310134310134
1,811	8,54700854700852
1,8115	-1,22100122100122
1,812	-10,989010989011
1,8125	-15,8730158730158
1,813	-10,989010989011
1,8135	-6,10500610500608
1,814	-1,22100122100122
1,8145	3,66300366300365
1,815	3,66300366300365
1,8155	-1,22100122100122
1,816	-1,22100122100122
1,8165	3,66300366300365
1,817	8,54700854700852
1,8175	13,4310134310134
1,818	18,3150183150183
1,8185	18,3150183150183
1,819	18,3150183150183
1,8195	13,4310134310134
1,82	18,3150183150183
1,8205	28,083028083028
1,821	32,9670329670329
1,8215	28,083028083028
1,822	23,1990231990231
1,8225	13,4310134310134
1,823	8,54700854700852
1,8235	-1,22100122100122
1,824	-15,8730158730158
1,8245	-30,5250305250304
1,825	-40,2930402930402
1,8255	-50,0610500610499
1,826	-50,0610500610499
1,8265	-50,0610500610499
1,827	-40,2930402930402
1,8275	-30,5250305250304
1,828	-15,8730158730158
1,8285	-1,22100122100122
1,829	8,54700854700852
1,8295	18,3150183150183
1,83	23,1990231990231
1,8305	28,083028083028
1,831	23,1990231990231
1,8315	23,1990231990231
1,832	28,083028083028
1,8325	23,1990231990231
1,833	23,1990231990231
1,8335	18,3150183150183
1,834	13,4310134310134
1,8345	13,4310134310134
1,835	18,3150183150183
1,8355	18,3150183150183
1,836	13,4310134310134
1,8365	13,4310134310134
1,837	13,4310134310134
1,8375	13,4310134310134
1,838	8,54700854700852
1,8385	8,54700854700852
1,839	8,54700854700852
1,8395	3,66300366300365
1,84	3,66300366300365
1,8405	3,66300366300365
1,841	3,66300366300365
1,8415	3,66300366300365
1,842	3,66300366300365
1,8425	-1,22100122100122
1,843	3,66300366300365
1,8435	3,66300366300365
1,844	3,66300366300365
1,8445	3,66300366300365
1,845	3,66300366300365
1,8455	3,66300366300365
1,846	3,66300366300365
1,8465	3,66300366300365
1,847	3,66300366300365
1,8475	3,66300366300365
1,848	3,66300366300365
1,8485	8,54700854700852
1,849	8,54700854700852
1,8495	3,66300366300365
1,85	3,66300366300365
1,8505	3,66300366300365
1,851	3,66300366300365
1,8515	3,66300366300365
1,852	3,66300366300365
1,8525	3,66300366300365
1,853	3,66300366300365
1,8535	-1,22100122100122
1,854	-1,22100122100122
1,8545	3,66300366300365
1,855	8,54700854700852
1,8555	13,4310134310134
1,856	8,54700854700852
1,8565	3,66300366300365
1,857	3,66300366300365
1,8575	-1,22100122100122
1,858	-1,22100122100122
1,8585	3,66300366300365
1,859	-1,22100122100122
1,8595	-1,22100122100122
1,86	-6,10500610500608
1,8605	-1,22100122100122
1,861	3,66300366300365
1,8615	3,66300366300365
1,862	3,66300366300365
1,8625	3,66300366300365
1,863	3,66300366300365
1,8635	3,66300366300365
1,864	8,54700854700852
1,8645	3,66300366300365
1,865	3,66300366300365
1,8655	3,66300366300365
1,866	8,54700854700852
1,8665	8,54700854700852
1,867	8,54700854700852
1,8675	-1,22100122100122
1,868	-10,989010989011
1,8685	-15,8730158730158
1,869	-15,8730158730158
1,8695	-10,989010989011
1,87	-10,989010989011
1,8705	-1,22100122100122
1,871	8,54700854700852
1,8715	23,1990231990231
1,872	52,5030525030523
1,8725	69,5970695970694
1,873	64,7130647130645
1,8735	42,7350427350426
1,874	18,3150183150183
1,8745	3,66300366300365
1,875	3,66300366300365
1,8755	3,66300366300365
1,876	3,66300366300365
1,8765	3,66300366300365
1,877	3,66300366300365
1,8775	3,66300366300365
1,878	-1,22100122100122
1,8785	-6,10500610500608
1,879	-10,989010989011
1,8795	-10,989010989011
1,88	-10,989010989011
1,8805	-10,989010989011
1,881	-10,989010989011
1,8815	-10,989010989011
1,882	-10,989010989011
1,8825	-6,10500610500608
1,883	-6,10500610500608
1,8835	-6,10500610500608
1,884	-1,22100122100122
1,8845	-6,10500610500608
1,885	3,66300366300365
1,8855	-1,22100122100122
1,886	-1,22100122100122
1,8865	-1,22100122100122
1,887	-1,22100122100122
1,8875	3,66300366300365
1,888	8,54700854700852
1,8885	8,54700854700852
1,889	8,54700854700852
1,8895	8,54700854700852
1,89	8,54700854700852
1,8905	3,66300366300365
1,891	3,66300366300365
1,8915	3,66300366300365
1,892	8,54700854700852
1,8925	8,54700854700852
1,893	8,54700854700852
1,8935	8,54700854700852
1,894	3,66300366300365
1,8945	3,66300366300365
1,895	3,66300366300365
1,8955	3,66300366300365
1,896	3,66300366300365
1,8965	3,66300366300365
1,897	-1,22100122100122
1,8975	-6,10500610500608
1,898	-1,22100122100122
1,8985	-1,22100122100122
1,899	8,54700854700852
1,8995	23,1990231990231
1,9	28,083028083028
1,9005	28,083028083028
1,901	28,083028083028
1,9015	28,083028083028
1,902	23,1990231990231
1,9025	13,4310134310134
1,903	3,66300366300365
1,9035	-6,10500610500608
1,904	-10,989010989011
1,9045	-20,7570207570207
1,905	-35,4090354090353
1,9055	-45,177045177045
1,906	-35,4090354090353
1,9065	-30,5250305250304
1,907	-20,7570207570207
1,9075	-10,989010989011
1,908	-6,10500610500608
1,9085	-1,22100122100122
1,909	3,66300366300365
1,9095	8,54700854700852
1,91	13,4310134310134
1,9105	18,3150183150183
1,911	23,1990231990231
1,9115	23,1990231990231
1,912	23,1990231990231
1,9125	23,1990231990231
1,913	28,083028083028
1,9135	28,083028083028
1,914	28,083028083028
1,9145	32,9670329670329
1,915	23,1990231990231
1,9155	18,3150183150183
1,916	8,54700854700852
1,9165	3,66300366300365
1,917	-1,22100122100122
1,9175	-10,989010989011
1,918	-10,989010989011
1,9185	-20,7570207570207
1,919	-20,7570207570207
1,9195	-15,8730158730158
1,92	-10,989010989011
1,9205	-10,989010989011
1,921	3,66300366300365
1,9215	3,66300366300365
1,922	-6,10500610500608
1,9225	-6,10500610500608
1,923	-6,10500610500608
1,9235	3,66300366300365
1,924	8,54700854700852
1,9245	8,54700854700852
1,925	13,4310134310134
1,9255	8,54700854700852
1,926	13,4310134310134
1,9265	13,4310134310134
1,927	18,3150183150183
1,9275	18,3150183150183
1,928	18,3150183150183
1,9285	18,3150183150183
1,929	18,3150183150183
1,9295	18,3150183150183
1,93	8,54700854700852
1,9305	8,54700854700852
1,931	8,54700854700852
1,9315	8,54700854700852
1,932	3,66300366300365
1,9325	3,66300366300365
1,933	-1,22100122100122
1,9335	-1,22100122100122
1,934	-1,22100122100122
1,9345	-1,22100122100122
1,935	-1,22100122100122
1,9355	-1,22100122100122
1,936	-1,22100122100122
1,9365	3,66300366300365
1,937	3,66300366300365
1,9375	3,66300366300365
1,938	3,66300366300365
1,9385	3,66300366300365
1,939	8,54700854700852
1,9395	18,3150183150183
1,94	18,3150183150183
1,9405	13,4310134310134
1,941	8,54700854700852
1,9415	8,54700854700852
1,942	3,66300366300365
1,9425	3,66300366300365
1,943	3,66300366300365
1,9435	-1,22100122100122
1,944	-1,22100122100122
1,9445	-1,22100122100122
1,945	-6,10500610500608
1,9455	-6,10500610500608
1,946	-6,10500610500608
1,9465	-1,22100122100122
1,947	3,66300366300365
1,9475	3,66300366300365
1,948	3,66300366300365
1,9485	3,66300366300365
1,949	-1,22100122100122
1,9495	3,66300366300365
1,95	3,66300366300365
1,9505	3,66300366300365
1,951	3,66300366300365
1,9515	3,66300366300365
1,952	3,66300366300365
1,9525	3,66300366300365
1,953	3,66300366300365
1,9535	3,66300366300365
1,954	3,66300366300365
1,9545	3,66300366300365
1,955	3,66300366300365
1,9555	3,66300366300365
1,956	3,66300366300365
1,9565	3,66300366300365
1,957	8,54700854700852
1,9575	8,54700854700852
1,958	8,54700854700852
1,9585	3,66300366300365
1,959	3,66300366300365
1,9595	-1,22100122100122
1,96	-1,22100122100122
1,9605	-1,22100122100122
1,961	3,66300366300365
1,9615	3,66300366300365
1,962	3,66300366300365
1,9625	3,66300366300365
1,963	3,66300366300365
1,9635	3,66300366300365
1,964	3,66300366300365
1,9645	3,66300366300365
1,965	3,66300366300365
1,9655	3,66300366300365
1,966	3,66300366300365
1,9665	3,66300366300365
1,967	8,54700854700852
1,9675	3,66300366300365
1,968	3,66300366300365
1,9685	3,66300366300365
1,969	3,66300366300365
1,9695	3,66300366300365
1,97	3,66300366300365
1,9705	3,66300366300365
1,971	3,66300366300365
1,9715	3,66300366300365
1,972	3,66300366300365
1,9725	3,66300366300365
1,973	3,66300366300365
1,9735	3,66300366300365
1,974	3,66300366300365
1,9745	3,66300366300365
1,975	3,66300366300365
1,9755	-1,22100122100122
1,976	-1,22100122100122
1,9765	-1,22100122100122
1,977	3,66300366300365
1,9775	8,54700854700852
1,978	3,66300366300365
1,9785	3,66300366300365
1,979	3,66300366300365
1,9795	8,54700854700852
1,98	3,66300366300365
1,9805	3,66300366300365
1,981	3,66300366300365
1,9815	3,66300366300365
1,982	8,54700854700852
1,9825	8,54700854700852
1,983	8,54700854700852
1,9835	8,54700854700852
1,984	3,66300366300365
1,9845	3,66300366300365
1,985	3,66300366300365
1,9855	3,66300366300365
1,986	-1,22100122100122
1,9865	3,66300366300365
1,987	3,66300366300365
1,9875	8,54700854700852
1,988	3,66300366300365
1,9885	3,66300366300365
1,989	3,66300366300365
1,9895	3,66300366300365
1,99	3,66300366300365
1,9905	3,66300366300365
1,991	3,66300366300365
1,9915	3,66300366300365
1,992	3,66300366300365
1,9925	3,66300366300365
1,993	3,66300366300365
1,9935	8,54700854700852
1,994	3,66300366300365
1,9945	3,66300366300365
1,995	3,66300366300365
1,9955	3,66300366300365
1,996	8,54700854700852
1,9965	8,54700854700852
1,997	8,54700854700852
1,9975	8,54700854700852
1,998	3,66300366300365
1,9985	3,66300366300365
1,999	3,66300366300365
1,9995	3,66300366300365
2	-1,22100122100122
2,0005	-6,10500610500608
2,001	-10,989010989011
2,0015	-10,989010989011
2,002	-10,989010989011
2,0025	-6,10500610500608
2,003	3,66300366300365
2,0035	3,66300366300365
2,004	3,66300366300365
2,0045	3,66300366300365
2,005	-1,22100122100122
2,0055	-1,22100122100122
2,006	3,66300366300365
2,0065	3,66300366300365
2,007	3,66300366300365
2,0075	8,54700854700852
2,008	8,54700854700852
2,0085	13,4310134310134
2,009	13,4310134310134
2,0095	8,54700854700852
2,01	8,54700854700852
2,0105	13,4310134310134
2,011	18,3150183150183
2,0115	18,3150183150183
2,012	18,3150183150183
2,0125	18,3150183150183
2,013	23,1990231990231
2,0135	18,3150183150183
2,014	13,4310134310134
2,0145	8,54700854700852
2,015	3,66300366300365
2,0155	3,66300366300365
2,016	3,66300366300365
2,0165	-1,22100122100122
2,017	-1,22100122100122
2,0175	-1,22100122100122
2,018	-1,22100122100122
2,0185	3,66300366300365
2,019	-1,22100122100122
2,0195	3,66300366300365
2,02	-1,22100122100122
2,0205	-1,22100122100122
2,021	-1,22100122100122
2,0215	-1,22100122100122
2,022	3,66300366300365
2,0225	3,66300366300365
2,023	3,66300366300365
2,0235	-1,22100122100122
2,024	3,66300366300365
2,0245	3,66300366300365
2,025	-1,22100122100122
2,0255	3,66300366300365
2,026	-1,22100122100122
2,0265	-1,22100122100122
2,027	-1,22100122100122
2,0275	-1,22100122100122
2,028	-1,22100122100122
2,0285	3,66300366300365
2,029	3,66300366300365
2,0295	3,66300366300365
2,03	-1,22100122100122
2,0305	3,66300366300365
2,031	8,54700854700852
2,0315	13,4310134310134
2,032	13,4310134310134
2,0325	8,54700854700852
2,033	8,54700854700852
2,0335	13,4310134310134
2,034	18,3150183150183
2,0345	23,1990231990231
2,035	23,1990231990231
2,0355	23,1990231990231
2,036	13,4310134310134
2,0365	3,66300366300365
2,037	-6,10500610500608
2,0375	-10,989010989011
2,038	-10,989010989011
2,0385	-10,989010989011
2,039	-10,989010989011
2,0395	-10,989010989011
2,04	-10,989010989011
2,0405	-10,989010989011
2,041	-10,989010989011
2,0415	-6,10500610500608
2,042	3,66300366300365
2,0425	3,66300366300365
2,043	8,54700854700852
2,0435	13,4310134310134
2,044	8,54700854700852
2,0445	8,54700854700852
2,045	8,54700854700852
2,0455	8,54700854700852
2,046	8,54700854700852
2,0465	8,54700854700852
2,047	23,1990231990231
2,0475	32,9670329670329
2,048	42,7350427350426
2,0485	42,7350427350426
2,049	32,9670329670329
2,0495	23,1990231990231
2,05	18,3150183150183
2,0505	8,54700854700852
2,051	-1,22100122100122
2,0515	-6,10500610500608
2,052	-10,989010989011
2,0525	-25,6410256410256
2,053	-40,2930402930402
2,0535	-50,0610500610499
2,054	-45,177045177045
2,0545	-40,2930402930402
2,055	-30,5250305250304
2,0555	-10,989010989011
2,056	-6,10500610500608
2,0565	3,66300366300365
2,057	8,54700854700852
2,0575	18,3150183150183
2,058	18,3150183150183
2,0585	23,1990231990231
2,059	18,3150183150183
2,0595	18,3150183150183
2,06	23,1990231990231
2,0605	23,1990231990231
2,061	23,1990231990231
2,0615	18,3150183150183
2,062	13,4310134310134
2,0625	8,54700854700852
2,063	8,54700854700852
2,0635	8,54700854700852
2,064	13,4310134310134
2,0645	8,54700854700852
2,065	3,66300366300365
2,0655	3,66300366300365
2,066	3,66300366300365
2,0665	3,66300366300365
2,067	3,66300366300365
2,0675	8,54700854700852
2,068	8,54700854700852
2,0685	18,3150183150183
2,069	18,3150183150183
2,0695	13,4310134310134
2,07	8,54700854700852
2,0705	8,54700854700852
2,071	3,66300366300365
2,0715	3,66300366300365
2,072	-6,10500610500608
2,0725	-6,10500610500608
2,073	-10,989010989011
2,0735	-10,989010989011
2,074	-10,989010989011
2,0745	-6,10500610500608
2,075	-1,22100122100122
2,0755	3,66300366300365
2,076	3,66300366300365
2,0765	8,54700854700852
2,077	8,54700854700852
2,0775	18,3150183150183
2,078	23,1990231990231
2,0785	18,3150183150183
2,079	13,4310134310134
2,0795	8,54700854700852
2,08	-1,22100122100122
2,0805	-1,22100122100122
2,081	-1,22100122100122
2,0815	-6,10500610500608
2,082	-1,22100122100122
2,0825	-1,22100122100122
2,083	-1,22100122100122
2,0835	3,66300366300365
2,084	3,66300366300365
2,0845	3,66300366300365
2,085	3,66300366300365
2,0855	3,66300366300365
2,086	-1,22100122100122
2,0865	3,66300366300365
2,087	3,66300366300365
2,0875	3,66300366300365
2,088	3,66300366300365
2,0885	3,66300366300365
2,089	3,66300366300365
2,0895	3,66300366300365
2,09	3,66300366300365
2,0905	3,66300366300365
2,091	8,54700854700852
2,0915	8,54700854700852
2,092	3,66300366300365
2,0925	3,66300366300365
2,093	3,66300366300365
2,0935	-1,22100122100122
2,094	3,66300366300365
2,0945	3,66300366300365
2,095	3,66300366300365
2,0955	3,66300366300365
2,096	3,66300366300365
2,0965	3,66300366300365
2,097	3,66300366300365
2,0975	8,54700854700852
2,098	3,66300366300365
2,0985	8,54700854700852
2,099	8,54700854700852
2,0995	8,54700854700852
2,1	3,66300366300365
2,1005	3,66300366300365
2,101	-1,22100122100122
2,1015	-1,22100122100122
2,102	-6,10500610500608
2,1025	-6,10500610500608
2,103	-6,10500610500608
2,1035	-10,989010989011
2,104	-20,7570207570207
2,1045	-20,7570207570207
2,105	-10,989010989011
2,1055	8,54700854700852
2,106	28,083028083028
2,1065	37,8510378510377
2,107	42,7350427350426
2,1075	47,6190476190475
2,108	69,5970695970694
2,1085	64,7130647130645
2,109	28,083028083028
2,1095	-1,22100122100122
2,11	-20,7570207570207
2,1105	-35,4090354090353
2,111	-45,177045177045
2,1115	-50,0610500610499
2,112	-40,2930402930402
2,1125	-25,6410256410256
2,113	-10,989010989011
2,1135	-10,989010989011
2,114	-6,10500610500608
2,1145	-6,10500610500608
2,115	3,66300366300365
2,1155	8,54700854700852
2,116	13,4310134310134
2,1165	13,4310134310134
2,117	13,4310134310134
2,1175	13,4310134310134
2,118	8,54700854700852
2,1185	13,4310134310134
2,119	18,3150183150183
2,1195	13,4310134310134
2,12	13,4310134310134
2,1205	13,4310134310134
2,121	13,4310134310134
2,1215	13,4310134310134
2,122	8,54700854700852
2,1225	8,54700854700852
2,123	8,54700854700852
2,1235	8,54700854700852
2,124	8,54700854700852
2,1245	13,4310134310134
2,125	8,54700854700852
2,1255	8,54700854700852
2,126	3,66300366300365
2,1265	3,66300366300365
2,127	3,66300366300365
2,1275	3,66300366300365
2,128	3,66300366300365
2,1285	3,66300366300365
2,129	3,66300366300365
2,1295	3,66300366300365
2,13	-1,22100122100122
2,1305	-1,22100122100122
2,131	3,66300366300365
2,1315	3,66300366300365
2,132	3,66300366300365
2,1325	-1,22100122100122
2,133	-1,22100122100122
2,1335	-1,22100122100122
2,134	3,66300366300365
2,1345	-1,22100122100122
2,135	-6,10500610500608
2,1355	-6,10500610500608
2,136	-6,10500610500608
2,1365	8,54700854700852
2,137	13,4310134310134
2,1375	23,1990231990231
2,138	18,3150183150183
2,1385	18,3150183150183
2,139	13,4310134310134
2,1395	13,4310134310134
2,14	18,3150183150183
2,1405	8,54700854700852
2,141	3,66300366300365
2,1415	-1,22100122100122
2,142	-10,989010989011
2,1425	-10,989010989011
2,143	-10,989010989011
2,1435	-10,989010989011
2,144	-10,989010989011
2,1445	-10,989010989011
2,145	-6,10500610500608
2,1455	3,66300366300365
2,146	3,66300366300365
2,1465	8,54700854700852
2,147	18,3150183150183
2,1475	18,3150183150183
2,148	13,4310134310134
2,1485	8,54700854700852
2,149	8,54700854700852
2,1495	3,66300366300365
2,15	-1,22100122100122
2,1505	-6,10500610500608
2,151	-6,10500610500608
2,1515	-6,10500610500608
2,152	-1,22100122100122
2,1525	3,66300366300365
2,153	3,66300366300365
2,1535	8,54700854700852
2,154	8,54700854700852
2,1545	8,54700854700852
2,155	8,54700854700852
2,1555	8,54700854700852
2,156	8,54700854700852
2,1565	8,54700854700852
2,157	8,54700854700852
2,1575	8,54700854700852
2,158	8,54700854700852
2,1585	8,54700854700852
2,159	8,54700854700852
2,1595	3,66300366300365
2,16	3,66300366300365
2,1605	3,66300366300365
2,161	3,66300366300365
2,1615	3,66300366300365
2,162	3,66300366300365
2,1625	3,66300366300365
2,163	3,66300366300365
2,1635	3,66300366300365
2,164	3,66300366300365
2,1645	8,54700854700852
2,165	13,4310134310134
2,1655	13,4310134310134
2,166	8,54700854700852
2,1665	8,54700854700852
2,167	3,66300366300365
2,1675	-1,22100122100122
2,168	-1,22100122100122
2,1685	-1,22100122100122
2,169	-1,22100122100122
2,1695	-1,22100122100122
2,17	3,66300366300365
2,1705	-1,22100122100122
2,171	-1,22100122100122
2,1715	-1,22100122100122
2,172	-1,22100122100122
2,1725	-1,22100122100122
2,173	-1,22100122100122
2,1735	-6,10500610500608
2,174	-1,22100122100122
2,1745	3,66300366300365
2,175	3,66300366300365
2,1755	8,54700854700852
2,176	8,54700854700852
2,1765	3,66300366300365
2,177	3,66300366300365
2,1775	3,66300366300365
2,178	8,54700854700852
2,1785	8,54700854700852
2,179	8,54700854700852
2,1795	8,54700854700852
2,18	8,54700854700852
2,1805	3,66300366300365
2,181	3,66300366300365
2,1815	3,66300366300365
2,182	8,54700854700852
2,1825	8,54700854700852
2,183	8,54700854700852
2,1835	8,54700854700852
2,184	8,54700854700852
2,1845	3,66300366300365
2,185	8,54700854700852
2,1855	8,54700854700852
2,186	8,54700854700852
2,1865	18,3150183150183
2,187	13,4310134310134
2,1875	8,54700854700852
2,188	8,54700854700852
2,1885	3,66300366300365
2,189	-1,22100122100122
2,1895	-6,10500610500608
2,19	-10,989010989011
2,1905	-10,989010989011
2,191	-10,989010989011
2,1915	-10,989010989011
2,192	-10,989010989011
2,1925	-10,989010989011
2,193	-15,8730158730158
2,1935	-10,989010989011
2,194	-1,22100122100122
2,1945	3,66300366300365
2,195	8,54700854700852
2,1955	8,54700854700852
2,196	13,4310134310134
2,1965	8,54700854700852
2,197	13,4310134310134
2,1975	8,54700854700852
2,198	13,4310134310134
2,1985	8,54700854700852
2,199	13,4310134310134
2,1995	8,54700854700852
2,2	8,54700854700852
2,2005	8,54700854700852
2,201	3,66300366300365
2,2015	3,66300366300365
2,202	3,66300366300365
2,2025	3,66300366300365
2,203	3,66300366300365
2,2035	3,66300366300365
2,204	-6,10500610500608
2,2045	-1,22100122100122
2,205	-1,22100122100122
2,2055	3,66300366300365
2,206	8,54700854700852
2,2065	18,3150183150183
2,207	13,4310134310134
2,2075	13,4310134310134
2,208	13,4310134310134
2,2085	13,4310134310134
2,209	18,3150183150183
2,2095	18,3150183150183
2,21	13,4310134310134
2,2105	8,54700854700852
2,211	3,66300366300365
2,2115	3,66300366300365
2,212	3,66300366300365
2,2125	-1,22100122100122
2,213	-1,22100122100122
2,2135	-1,22100122100122
2,214	3,66300366300365
2,2145	-1,22100122100122
2,215	-1,22100122100122
2,2155	-6,10500610500608
2,216	-6,10500610500608
2,2165	-6,10500610500608
2,217	-6,10500610500608
2,2175	-6,10500610500608
2,218	-1,22100122100122
2,2185	-1,22100122100122
2,219	-1,22100122100122
2,2195	3,66300366300365
2,22	8,54700854700852
2,2205	8,54700854700852
2,221	13,4310134310134
2,2215	13,4310134310134
2,222	13,4310134310134
2,2225	8,54700854700852
2,223	8,54700854700852
2,2235	3,66300366300365
2,224	-1,22100122100122
2,2245	-6,10500610500608
2,225	-6,10500610500608
2,2255	-1,22100122100122
2,226	-1,22100122100122
2,2265	-1,22100122100122
2,227	-6,10500610500608
2,2275	-6,10500610500608
2,228	-1,22100122100122
2,2285	-1,22100122100122
2,229	3,66300366300365
2,2295	3,66300366300365
2,23	3,66300366300365
2,2305	-1,22100122100122
2,231	3,66300366300365
2,2315	3,66300366300365
2,232	3,66300366300365
2,2325	3,66300366300365
2,233	3,66300366300365
2,2335	8,54700854700852
2,234	8,54700854700852
2,2345	8,54700854700852
2,235	8,54700854700852
2,2355	8,54700854700852
2,236	8,54700854700852
2,2365	8,54700854700852
2,237	8,54700854700852
2,2375	3,66300366300365
2,238	3,66300366300365
2,2385	3,66300366300365
2,239	3,66300366300365
2,2395	3,66300366300365
2,24	18,3150183150183
2,2405	28,083028083028
2,241	37,8510378510377
2,2415	37,8510378510377
2,242	32,9670329670329
2,2425	28,083028083028
2,243	23,1990231990231
2,2435	8,54700854700852
2,244	-6,10500610500608
2,2445	-15,8730158730158
2,245	-20,7570207570207
2,2455	-35,4090354090353
2,246	-50,0610500610499
2,2465	-50,0610500610499
2,247	-45,177045177045
2,2475	-35,4090354090353
2,248	-20,7570207570207
2,2485	-10,989010989011
2,249	3,66300366300365
2,2495	8,54700854700852
2,25	18,3150183150183
2,2505	18,3150183150183
2,251	18,3150183150183
2,2515	18,3150183150183
2,252	18,3150183150183
2,2525	18,3150183150183
2,253	18,3150183150183
2,2535	13,4310134310134
2,254	13,4310134310134
2,2545	13,4310134310134
2,255	8,54700854700852
2,2555	8,54700854700852
2,256	8,54700854700852
2,2565	8,54700854700852
2,257	8,54700854700852
2,2575	8,54700854700852
2,258	18,3150183150183
2,2585	18,3150183150183
2,259	13,4310134310134
2,2595	8,54700854700852
2,26	3,66300366300365
2,2605	-10,989010989011
2,261	-10,989010989011
2,2615	-15,8730158730158
2,262	-15,8730158730158
2,2625	-10,989010989011
2,263	-6,10500610500608
2,2635	3,66300366300365
2,264	18,3150183150183
2,2645	32,9670329670329
2,265	47,6190476190475
2,2655	42,7350427350426
2,266	28,083028083028
2,2665	18,3150183150183
2,267	8,54700854700852
2,2675	8,54700854700852
2,268	8,54700854700852
2,2685	8,54700854700852
2,269	8,54700854700852
2,2695	13,4310134310134
2,27	13,4310134310134
2,2705	8,54700854700852
2,271	-1,22100122100122
2,2715	-10,989010989011
2,272	-10,989010989011
2,2725	-10,989010989011
2,273	-10,989010989011
2,2735	-10,989010989011
2,274	-10,989010989011
2,2745	-10,989010989011
2,275	-6,10500610500608
2,2755	-6,10500610500608
2,276	-6,10500610500608
2,2765	-6,10500610500608
2,277	-1,22100122100122
2,2775	-1,22100122100122
2,278	3,66300366300365
2,2785	3,66300366300365
2,279	3,66300366300365
2,2795	8,54700854700852
2,28	8,54700854700852
2,2805	3,66300366300365
2,281	3,66300366300365
2,2815	3,66300366300365
2,282	-1,22100122100122
2,2825	-1,22100122100122
2,283	3,66300366300365
2,2835	3,66300366300365
2,284	3,66300366300365
2,2845	3,66300366300365
2,285	3,66300366300365
2,2855	3,66300366300365
2,286	3,66300366300365
2,2865	3,66300366300365
2,287	3,66300366300365
2,2875	3,66300366300365
2,288	8,54700854700852
2,2885	13,4310134310134
2,289	13,4310134310134
2,2895	8,54700854700852
2,29	8,54700854700852
2,2905	8,54700854700852
2,291	8,54700854700852
2,2915	8,54700854700852
2,292	8,54700854700852
2,2925	8,54700854700852
2,293	3,66300366300365
2,2935	3,66300366300365
2,294	3,66300366300365
2,2945	3,66300366300365
2,295	-1,22100122100122
2,2955	-6,10500610500608
2,296	-10,989010989011
2,2965	-6,10500610500608
2,297	-6,10500610500608
2,2975	-1,22100122100122
2,298	3,66300366300365
2,2985	3,66300366300365
2,299	8,54700854700852
2,2995	8,54700854700852
2,3	18,3150183150183
2,3005	13,4310134310134
2,301	8,54700854700852
2,3015	8,54700854700852
2,302	8,54700854700852
2,3025	13,4310134310134
2,303	8,54700854700852
2,3035	8,54700854700852
2,304	8,54700854700852
2,3045	8,54700854700852
2,305	3,66300366300365
2,3055	3,66300366300365
2,306	3,66300366300365
2,3065	-1,22100122100122
2,307	-10,989010989011
2,3075	-10,989010989011
2,308	-10,989010989011
2,3085	-6,10500610500608
2,309	-1,22100122100122
2,3095	3,66300366300365
2,31	3,66300366300365
2,3105	3,66300366300365
2,311	3,66300366300365
2,3115	3,66300366300365
2,312	3,66300366300365
2,3125	3,66300366300365
2,313	3,66300366300365
2,3135	3,66300366300365
2,314	3,66300366300365
2,3145	3,66300366300365
2,315	8,54700854700852
2,3155	8,54700854700852
2,316	8,54700854700852
2,3165	8,54700854700852
2,317	8,54700854700852
2,3175	3,66300366300365
2,318	3,66300366300365
2,3185	-1,22100122100122
2,319	3,66300366300365
2,3195	3,66300366300365
2,32	3,66300366300365
2,3205	3,66300366300365
2,321	3,66300366300365
2,3215	3,66300366300365
2,322	3,66300366300365
2,3225	8,54700854700852
2,323	3,66300366300365
2,3235	3,66300366300365
2,324	3,66300366300365
2,3245	3,66300366300365
2,325	3,66300366300365
2,3255	3,66300366300365
2,326	3,66300366300365
2,3265	3,66300366300365
2,327	3,66300366300365
2,3275	3,66300366300365
2,328	3,66300366300365
2,3285	3,66300366300365
2,329	8,54700854700852
2,3295	13,4310134310134
2,33	8,54700854700852
2,3305	8,54700854700852
2,331	3,66300366300365
2,3315	3,66300366300365
2,332	8,54700854700852
2,3325	8,54700854700852
2,333	8,54700854700852
2,3335	8,54700854700852
2,334	3,66300366300365
2,3345	-1,22100122100122
2,335	-1,22100122100122
2,3355	-1,22100122100122
2,336	3,66300366300365
2,3365	3,66300366300365
2,337	-1,22100122100122
2,3375	-1,22100122100122
2,338	-1,22100122100122
2,3385	3,66300366300365
2,339	3,66300366300365
2,3395	3,66300366300365
2,34	3,66300366300365
2,3405	3,66300366300365
2,341	3,66300366300365
2,3415	3,66300366300365
2,342	3,66300366300365
2,3425	8,54700854700852
2,343	8,54700854700852
2,3435	8,54700854700852
2,344	13,4310134310134
2,3445	18,3150183150183
2,345	18,3150183150183
2,3455	13,4310134310134
2,346	3,66300366300365
2,3465	3,66300366300365
2,347	3,66300366300365
2,3475	3,66300366300365
2,348	3,66300366300365
2,3485	3,66300366300365
2,349	3,66300366300365
2,3495	3,66300366300365
2,35	-1,22100122100122
2,3505	-1,22100122100122
2,351	-1,22100122100122
2,3515	-1,22100122100122
2,352	-6,10500610500608
2,3525	-1,22100122100122
2,353	-1,22100122100122
2,3535	3,66300366300365
2,354	3,66300366300365
2,3545	3,66300366300365
2,355	3,66300366300365
2,3555	3,66300366300365
2,356	3,66300366300365
2,3565	3,66300366300365
2,357	3,66300366300365
2,3575	3,66300366300365
2,358	8,54700854700852
2,3585	8,54700854700852
2,359	8,54700854700852
2,3595	3,66300366300365
2,36	8,54700854700852
2,3605	3,66300366300365
2,361	3,66300366300365
2,3615	-1,22100122100122
2,362	3,66300366300365
2,3625	3,66300366300365
2,363	3,66300366300365
2,3635	3,66300366300365
2,364	3,66300366300365
2,3645	-1,22100122100122
2,365	-1,22100122100122
2,3655	-1,22100122100122
2,366	-1,22100122100122
2,3665	3,66300366300365
2,367	8,54700854700852
2,3675	8,54700854700852
2,368	13,4310134310134
2,3685	13,4310134310134
2,369	13,4310134310134
2,3695	8,54700854700852
2,37	3,66300366300365
2,3705	3,66300366300365
2,371	3,66300366300365
2,3715	3,66300366300365
2,372	3,66300366300365
2,3725	3,66300366300365
2,373	3,66300366300365
2,3735	8,54700854700852
2,374	8,54700854700852
2,3745	8,54700854700852
2,375	8,54700854700852
2,3755	3,66300366300365
2,376	3,66300366300365
2,3765	-1,22100122100122
2,377	-1,22100122100122
2,3775	3,66300366300365
2,378	3,66300366300365
2,3785	3,66300366300365
2,379	3,66300366300365
2,3795	-1,22100122100122
2,38	-1,22100122100122
2,3805	-1,22100122100122
2,381	-6,10500610500608
2,3815	-6,10500610500608
2,382	-6,10500610500608
2,3825	-1,22100122100122
2,383	3,66300366300365
2,3835	3,66300366300365
2,384	8,54700854700852
2,3845	8,54700854700852
2,385	8,54700854700852
2,3855	8,54700854700852
2,386	8,54700854700852
2,3865	8,54700854700852
2,387	8,54700854700852
2,3875	3,66300366300365
2,388	3,66300366300365
2,3885	3,66300366300365
2,389	3,66300366300365
2,3895	3,66300366300365
2,39	3,66300366300365
2,3905	3,66300366300365
2,391	8,54700854700852
2,3915	18,3150183150183
2,392	13,4310134310134
2,3925	13,4310134310134
2,393	13,4310134310134
2,3935	13,4310134310134
2,394	8,54700854700852
2,3945	8,54700854700852
2,395	3,66300366300365
2,3955	-6,10500610500608
2,396	-10,989010989011
2,3965	-10,989010989011
2,397	-10,989010989011
2,3975	-10,989010989011
2,398	-6,10500610500608
2,3985	-6,10500610500608
2,399	-6,10500610500608
2,3995	-6,10500610500608
2,4	-1,22100122100122
2,4005	3,66300366300365
2,401	3,66300366300365
2,4015	3,66300366300365
2,402	3,66300366300365
2,4025	3,66300366300365
2,403	3,66300366300365
2,4035	3,66300366300365
2,404	8,54700854700852
2,4045	8,54700854700852
2,405	8,54700854700852
2,4055	8,54700854700852
2,406	13,4310134310134
2,4065	13,4310134310134
2,407	8,54700854700852
2,4075	3,66300366300365
2,408	3,66300366300365
2,4085	3,66300366300365
2,409	3,66300366300365
2,4095	3,66300366300365
2,41	3,66300366300365
2,4105	3,66300366300365
2,411	3,66300366300365
2,4115	3,66300366300365
2,412	-1,22100122100122
2,4125	3,66300366300365
2,413	3,66300366300365
2,4135	8,54700854700852
2,414	13,4310134310134
2,4145	18,3150183150183
2,415	23,1990231990231
2,4155	23,1990231990231
2,416	18,3150183150183
2,4165	8,54700854700852
2,417	3,66300366300365
2,4175	3,66300366300365
2,418	3,66300366300365
2,4185	3,66300366300365
2,419	3,66300366300365
2,4195	3,66300366300365
2,42	3,66300366300365
2,4205	3,66300366300365
2,421	3,66300366300365
2,4215	-1,22100122100122
2,422	-6,10500610500608
2,4225	-6,10500610500608
2,423	-6,10500610500608
2,4235	-1,22100122100122
2,424	3,66300366300365
2,4245	3,66300366300365
2,425	3,66300366300365
2,4255	-1,22100122100122
2,426	-1,22100122100122
2,4265	3,66300366300365
2,427	3,66300366300365
2,4275	3,66300366300365
2,428	3,66300366300365
2,4285	3,66300366300365
2,429	3,66300366300365
2,4295	3,66300366300365
2,43	3,66300366300365
2,4305	-1,22100122100122
2,431	3,66300366300365
2,4315	3,66300366300365
2,432	3,66300366300365
2,4325	3,66300366300365
2,433	3,66300366300365
2,4335	3,66300366300365
2,434	-1,22100122100122
2,4345	-1,22100122100122
2,435	-1,22100122100122
2,4355	-1,22100122100122
2,436	-1,22100122100122
2,4365	-1,22100122100122
2,437	3,66300366300365
2,4375	-1,22100122100122
2,438	-1,22100122100122
2,4385	-1,22100122100122
2,439	3,66300366300365
2,4395	3,66300366300365
2,44	3,66300366300365
2,4405	8,54700854700852
2,441	13,4310134310134
2,4415	18,3150183150183
2,442	18,3150183150183
2,4425	8,54700854700852
2,443	8,54700854700852
2,4435	8,54700854700852
2,444	8,54700854700852
2,4445	8,54700854700852
2,445	8,54700854700852
2,4455	8,54700854700852
2,446	8,54700854700852
2,4465	8,54700854700852
2,447	8,54700854700852
2,4475	8,54700854700852
2,448	3,66300366300365
2,4485	3,66300366300365
2,449	3,66300366300365
2,4495	3,66300366300365
2,45	3,66300366300365
2,4505	-1,22100122100122
2,451	3,66300366300365
2,4515	3,66300366300365
2,452	-1,22100122100122
2,4525	-6,10500610500608
2,453	-6,10500610500608
2,4535	-1,22100122100122
2,454	-1,22100122100122
2,4545	-1,22100122100122
2,455	-1,22100122100122
2,4555	3,66300366300365
2,456	-1,22100122100122
2,4565	-1,22100122100122
2,457	3,66300366300365
2,4575	3,66300366300365
2,458	3,66300366300365
2,4585	8,54700854700852
2,459	8,54700854700852
2,4595	8,54700854700852
2,46	8,54700854700852
2,4605	8,54700854700852
2,461	8,54700854700852
2,4615	8,54700854700852
2,462	8,54700854700852
2,4625	8,54700854700852
2,463	13,4310134310134
2,4635	13,4310134310134
2,464	8,54700854700852
2,4645	3,66300366300365
2,465	3,66300366300365
2,4655	3,66300366300365
2,466	3,66300366300365
2,4665	3,66300366300365
2,467	3,66300366300365
2,4675	3,66300366300365
2,468	3,66300366300365
2,4685	3,66300366300365
2,469	3,66300366300365
2,4695	8,54700854700852
2,47	8,54700854700852
2,4705	3,66300366300365
2,471	3,66300366300365
2,4715	3,66300366300365
2,472	3,66300366300365
2,4725	3,66300366300365
2,473	3,66300366300365
2,4735	3,66300366300365
2,474	3,66300366300365
2,4745	3,66300366300365
2,475	3,66300366300365
2,4755	-1,22100122100122
2,476	-6,10500610500608
2,4765	-1,22100122100122
2,477	3,66300366300365
2,4775	13,4310134310134
2,478	28,083028083028
2,4785	32,9670329670329
2,479	32,9670329670329
2,4795	28,083028083028
2,48	23,1990231990231
2,4805	3,66300366300365
2,481	-10,989010989011
2,4815	-10,989010989011
2,482	-10,989010989011
2,4825	-10,989010989011
2,483	-25,6410256410256
2,4835	-35,4090354090353
2,484	-40,2930402930402
2,4845	-30,5250305250304
2,485	-10,989010989011
2,4855	-1,22100122100122
2,486	8,54700854700852
2,4865	13,4310134310134
2,487	18,3150183150183
2,4875	23,1990231990231
2,488	18,3150183150183
2,4885	8,54700854700852
2,489	3,66300366300365
2,4895	3,66300366300365
2,49	3,66300366300365
2,4905	-1,22100122100122
2,491	-1,22100122100122
2,4915	-6,10500610500608
2,492	-6,10500610500608
2,4925	-6,10500610500608
2,493	3,66300366300365
2,4935	3,66300366300365
2,494	8,54700854700852
2,4945	13,4310134310134
2,495	13,4310134310134
2,4955	18,3150183150183
2,496	13,4310134310134
2,4965	8,54700854700852
2,497	8,54700854700852
2,4975	8,54700854700852
2,498	13,4310134310134
2,4985	18,3150183150183
2,499	13,4310134310134
2,4995	13,4310134310134
2,5	13,4310134310134
2,5005	8,54700854700852
2,501	8,54700854700852
2,5015	8,54700854700852
2,502	3,66300366300365
2,5025	3,66300366300365
2,503	-1,22100122100122
2,5035	3,66300366300365
2,504	3,66300366300365
2,5045	3,66300366300365
2,505	3,66300366300365
2,5055	3,66300366300365
2,506	3,66300366300365
2,5065	3,66300366300365
2,507	3,66300366300365
2,5075	3,66300366300365
2,508	3,66300366300365
2,5085	3,66300366300365
2,509	3,66300366300365
2,5095	3,66300366300365
2,51	3,66300366300365
2,5105	3,66300366300365
2,511	3,66300366300365
2,5115	3,66300366300365
2,512	3,66300366300365
2,5125	3,66300366300365
2,513	3,66300366300365
2,5135	3,66300366300365
2,514	3,66300366300365
2,5145	3,66300366300365
2,515	3,66300366300365
2,5155	3,66300366300365
2,516	3,66300366300365
2,5165	3,66300366300365
2,517	3,66300366300365
2,5175	-1,22100122100122
2,518	-1,22100122100122
2,5185	3,66300366300365
2,519	3,66300366300365
2,5195	3,66300366300365
2,52	8,54700854700852
2,5205	8,54700854700852
2,521	8,54700854700852
2,5215	3,66300366300365
2,522	3,66300366300365
2,5225	3,66300366300365
2,523	3,66300366300365
2,5235	3,66300366300365
2,524	8,54700854700852
2,5245	8,54700854700852
2,525	8,54700854700852
2,5255	3,66300366300365
2,526	3,66300366300365
2,5265	3,66300366300365
2,527	8,54700854700852
2,5275	8,54700854700852
2,528	13,4310134310134
2,5285	13,4310134310134
2,529	8,54700854700852
2,5295	3,66300366300365
2,53	-1,22100122100122
2,5305	3,66300366300365
2,531	3,66300366300365
2,5315	3,66300366300365
2,532	3,66300366300365
2,5325	3,66300366300365
2,533	-1,22100122100122
2,5335	-1,22100122100122
2,534	-10,989010989011
2,5345	-10,989010989011
2,535	-6,10500610500608
