0	32,9670329670329
0,0005	23,1990231990231
0,001	18,3150183150183
0,0015	18,3150183150183
0,002	28,083028083028
0,0025	28,083028083028
0,003	-1,22100122100122
0,0035	-30,5250305250304
0,004	-30,5250305250304
0,0045	-15,8730158730158
0,005	-6,10500610500608
0,0055	-10,989010989011
0,006	-6,10500610500608
0,0065	3,66300366300365
0,007	8,54700854700852
0,0075	3,66300366300365
0,008	3,66300366300365
0,0085	3,66300366300365
0,009	-1,22100122100122
0,0095	-6,10500610500608
0,01	-1,22100122100122
0,0105	8,54700854700852
0,011	-6,10500610500608
0,0115	-25,6410256410256
0,012	-30,5250305250304
0,0125	-25,6410256410256
0,013	-20,7570207570207
0,0135	-15,8730158730158
0,014	-10,989010989011
0,0145	3,66300366300365
0,015	32,9670329670329
0,0155	54,9450549450548
0,016	59,8290598290596
0,0165	47,6190476190475
0,017	28,083028083028
0,0175	18,3150183150183
0,018	8,54700854700852
0,0185	3,66300366300365
0,019	-1,22100122100122
0,0195	-1,22100122100122
0,02	3,66300366300365
0,0205	8,54700854700852
0,021	3,66300366300365
0,0215	3,66300366300365
0,022	13,4310134310134
0,0225	28,083028083028
0,023	37,8510378510377
0,0235	32,9670329670329
0,024	32,9670329670329
0,0245	37,8510378510377
0,025	37,8510378510377
0,0255	28,083028083028
0,026	8,54700854700852
0,0265	-6,10500610500608
0,027	-10,989010989011
0,0275	-20,7570207570207
0,028	-20,7570207570207
0,0285	-20,7570207570207
0,029	-10,989010989011
0,0295	-10,989010989011
0,03	-20,7570207570207
0,0305	-20,7570207570207
0,031	-15,8730158730158
0,0315	-10,989010989011
0,032	-10,989010989011
0,0325	3,66300366300365
0,033	23,1990231990231
0,0335	28,083028083028
0,034	8,54700854700852
0,0345	3,66300366300365
0,035	3,66300366300365
0,0355	3,66300366300365
0,036	-6,10500610500608
0,0365	-6,10500610500608
0,037	-6,10500610500608
0,0375	-6,10500610500608
0,038	-20,7570207570207
0,0385	-20,7570207570207
0,039	-15,8730158730158
0,0395	-15,8730158730158
0,04	-10,989010989011
0,0405	-6,10500610500608
0,041	-1,22100122100122
0,0415	-1,22100122100122
0,042	8,54700854700852
0,0425	18,3150183150183
0,043	23,1990231990231
0,0435	32,9670329670329
0,044	42,7350427350426
0,0445	47,6190476190475
0,045	59,8290598290596
0,0455	59,8290598290596
0,046	54,9450549450548
0,0465	37,8510378510377
0,047	28,083028083028
0,0475	23,1990231990231
0,048	18,3150183150183
0,0485	8,54700854700852
0,049	-1,22100122100122
0,0495	-10,989010989011
0,05	-10,989010989011
0,0505	-1,22100122100122
0,051	3,66300366300365
0,0515	13,4310134310134
0,052	8,54700854700852
0,0525	3,66300366300365
0,053	-6,10500610500608
0,0535	-10,989010989011
0,054	-10,989010989011
0,0545	-15,8730158730158
0,055	-30,5250305250304
0,0555	-45,177045177045
0,056	-45,177045177045
0,0565	-45,177045177045
0,057	-45,177045177045
0,0575	-52,5030525030523
0,058	-57,3870573870572
0,0585	-57,3870573870572
0,059	-40,2930402930402
0,0595	-25,6410256410256
0,06	-15,8730158730158
0,0605	-6,10500610500608
0,061	8,54700854700852
0,0615	18,3150183150183
0,062	23,1990231990231
0,0625	23,1990231990231
0,063	23,1990231990231
0,0635	23,1990231990231
0,064	18,3150183150183
0,0645	23,1990231990231
0,065	28,083028083028
0,0655	32,9670329670329
0,066	32,9670329670329
0,0665	28,083028083028
0,067	18,3150183150183
0,0675	13,4310134310134
0,068	18,3150183150183
0,0685	42,7350427350426
0,069	69,5970695970694
0,0695	64,7130647130645
0,07	32,9670329670329
0,0705	13,4310134310134
0,071	8,54700854700852
0,0715	18,3150183150183
0,072	37,8510378510377
0,0725	69,5970695970694
0,073	123,321123321123
0,0735	164,835164835165
0,074	164,835164835165
0,0745	113,553113553113
0,075	54,9450549450548
0,0755	8,54700854700852
0,076	-20,7570207570207
0,0765	-40,2930402930402
0,077	-52,5030525030523
0,0775	-62,2710622710621
0,078	-67,1550671550669
0,0785	-62,2710622710621
0,079	-52,5030525030523
0,0795	-40,2930402930402
0,08	-40,2930402930402
0,0805	-40,2930402930402
0,081	-30,5250305250304
0,0815	-30,5250305250304
0,082	-20,7570207570207
0,0825	-20,7570207570207
0,083	-25,6410256410256
0,0835	-30,5250305250304
0,084	-40,2930402930402
0,0845	-35,4090354090353
0,085	-20,7570207570207
0,0855	-1,22100122100122
0,086	8,54700854700852
0,0865	18,3150183150183
0,087	23,1990231990231
0,0875	23,1990231990231
0,088	28,083028083028
0,0885	28,083028083028
0,089	18,3150183150183
0,0895	3,66300366300365
0,09	-1,22100122100122
0,0905	-10,989010989011
0,091	-10,989010989011
0,0915	-20,7570207570207
0,092	-30,5250305250304
0,0925	-30,5250305250304
0,093	-20,7570207570207
0,0935	-15,8730158730158
0,094	-10,989010989011
0,0945	-10,989010989011
0,095	-6,10500610500608
0,0955	-1,22100122100122
0,096	-1,22100122100122
0,0965	3,66300366300365
0,097	8,54700854700852
0,0975	3,66300366300365
0,098	-1,22100122100122
0,0985	8,54700854700852
0,099	47,6190476190475
0,0995	74,4810744810742
0,1	74,4810744810742
0,1005	59,8290598290596
0,101	47,6190476190475
0,1015	47,6190476190475
0,102	59,8290598290596
0,1025	64,7130647130645
0,103	47,6190476190475
0,1035	28,083028083028
0,104	-1,22100122100122
0,1045	-20,7570207570207
0,105	-20,7570207570207
0,1055	-20,7570207570207
0,106	-10,989010989011
0,1065	-6,10500610500608
0,107	3,66300366300365
0,1075	8,54700854700852
0,108	8,54700854700852
0,1085	8,54700854700852
0,109	8,54700854700852
0,1095	3,66300366300365
0,11	-1,22100122100122
0,1105	-10,989010989011
0,111	-15,8730158730158
0,1115	-20,7570207570207
0,112	-25,6410256410256
0,1125	-20,7570207570207
0,113	-15,8730158730158
0,1135	-10,989010989011
0,114	-10,989010989011
0,1145	-10,989010989011
0,115	-10,989010989011
0,1155	-6,10500610500608
0,116	-10,989010989011
0,1165	-6,10500610500608
0,117	3,66300366300365
0,1175	3,66300366300365
0,118	3,66300366300365
0,1185	3,66300366300365
0,119	3,66300366300365
0,1195	13,4310134310134
0,12	8,54700854700852
0,1205	3,66300366300365
0,121	3,66300366300365
0,1215	3,66300366300365
0,122	8,54700854700852
0,1225	18,3150183150183
0,123	23,1990231990231
0,1235	23,1990231990231
0,124	13,4310134310134
0,1245	-6,10500610500608
0,125	-10,989010989011
0,1255	-10,989010989011
0,126	-6,10500610500608
0,1265	-1,22100122100122
0,127	-6,10500610500608
0,1275	-1,22100122100122
0,128	-1,22100122100122
0,1285	-1,22100122100122
0,129	-1,22100122100122
0,1295	3,66300366300365
0,13	-1,22100122100122
0,1305	-1,22100122100122
0,131	-6,10500610500608
0,1315	3,66300366300365
0,132	18,3150183150183
0,1325	18,3150183150183
0,133	18,3150183150183
0,1335	13,4310134310134
0,134	18,3150183150183
0,1345	23,1990231990231
0,135	28,083028083028
0,1355	32,9670329670329
0,136	37,8510378510377
0,1365	42,7350427350426
0,137	32,9670329670329
0,1375	23,1990231990231
0,138	18,3150183150183
0,1385	13,4310134310134
0,139	13,4310134310134
0,1395	8,54700854700852
0,14	8,54700854700852
0,1405	3,66300366300365
0,141	3,66300366300365
0,1415	-10,989010989011
0,142	-25,6410256410256
0,1425	-45,177045177045
0,143	-52,5030525030523
0,1435	-52,5030525030523
0,144	-62,2710622710621
0,1445	-72,0390720390718
0,145	-67,1550671550669
0,1455	-45,177045177045
0,146	-30,5250305250304
0,1465	-15,8730158730158
0,147	-6,10500610500608
0,1475	-1,22100122100122
0,148	-1,22100122100122
0,1485	3,66300366300365
0,149	28,083028083028
0,1495	47,6190476190475
0,15	64,7130647130645
0,1505	84,249084249084
0,151	108,669108669108
0,1515	128,205128205129
0,152	128,205128205129
0,1525	103,785103785103
0,153	64,7130647130645
0,1535	32,9670329670329
0,154	18,3150183150183
0,1545	18,3150183150183
0,155	18,3150183150183
0,1555	8,54700854700852
0,156	3,66300366300365
0,1565	-15,8730158730158
0,157	-30,5250305250304
0,1575	-30,5250305250304
0,158	-20,7570207570207
0,1585	-1,22100122100122
0,159	18,3150183150183
0,1595	42,7350427350426
0,16	74,4810744810742
0,1605	84,249084249084
0,161	64,7130647130645
0,1615	28,083028083028
0,162	3,66300366300365
0,1625	-20,7570207570207
0,163	-40,2930402930402
0,1635	-52,5030525030523
0,164	-62,2710622710621
0,1645	-62,2710622710621
0,165	-35,4090354090353
0,1655	-10,989010989011
0,166	-15,8730158730158
0,1665	-45,177045177045
0,167	-62,2710622710621
0,1675	-57,3870573870572
0,168	-45,177045177045
0,1685	-40,2930402930402
0,169	-40,2930402930402
0,1695	-30,5250305250304
0,17	-25,6410256410256
0,1705	-15,8730158730158
0,171	-6,10500610500608
0,1715	8,54700854700852
0,172	18,3150183150183
0,1725	28,083028083028
0,173	47,6190476190475
0,1735	69,5970695970694
0,174	84,249084249084
0,1745	89,1330891330888
0,175	94,0170940170937
0,1755	84,249084249084
0,176	59,8290598290596
0,1765	32,9670329670329
0,177	3,66300366300365
0,1775	-15,8730158730158
0,178	-20,7570207570207
0,1785	-25,6410256410256
0,179	-20,7570207570207
0,1795	-15,8730158730158
0,18	-15,8730158730158
0,1805	-20,7570207570207
0,181	-15,8730158730158
0,1815	-10,989010989011
0,182	-10,989010989011
0,1825	-10,989010989011
0,183	-6,10500610500608
0,1835	-1,22100122100122
0,184	3,66300366300365
0,1845	8,54700854700852
0,185	13,4310134310134
0,1855	8,54700854700852
0,186	3,66300366300365
0,1865	-6,10500610500608
0,187	-10,989010989011
0,1875	-10,989010989011
0,188	-10,989010989011
0,1885	-10,989010989011
0,189	-20,7570207570207
0,1895	-30,5250305250304
0,19	-30,5250305250304
0,1905	-30,5250305250304
0,191	-25,6410256410256
0,1915	-20,7570207570207
0,192	-20,7570207570207
0,1925	-15,8730158730158
0,193	-10,989010989011
0,1935	-1,22100122100122
0,194	3,66300366300365
0,1945	8,54700854700852
0,195	18,3150183150183
0,1955	18,3150183150183
0,196	23,1990231990231
0,1965	23,1990231990231
0,197	23,1990231990231
0,1975	23,1990231990231
0,198	23,1990231990231
0,1985	23,1990231990231
0,199	18,3150183150183
0,1995	23,1990231990231
0,2	23,1990231990231
0,2005	23,1990231990231
0,201	23,1990231990231
0,2015	18,3150183150183
0,202	18,3150183150183
0,2025	13,4310134310134
0,203	13,4310134310134
0,2035	13,4310134310134
0,204	18,3150183150183
0,2045	13,4310134310134
0,205	13,4310134310134
0,2055	8,54700854700852
0,206	8,54700854700852
0,2065	8,54700854700852
0,207	8,54700854700852
0,2075	18,3150183150183
0,208	23,1990231990231
0,2085	28,083028083028
0,209	28,083028083028
0,2095	23,1990231990231
0,21	18,3150183150183
0,2105	18,3150183150183
0,211	18,3150183150183
0,2115	13,4310134310134
0,212	13,4310134310134
0,2125	8,54700854700852
0,213	3,66300366300365
0,2135	-1,22100122100122
0,214	-10,989010989011
0,2145	-10,989010989011
0,215	-10,989010989011
0,2155	-10,989010989011
0,216	-10,989010989011
0,2165	-6,10500610500608
0,217	-6,10500610500608
0,2175	-6,10500610500608
0,218	-1,22100122100122
0,2185	-1,22100122100122
0,219	3,66300366300365
0,2195	-1,22100122100122
0,22	3,66300366300365
0,2205	3,66300366300365
0,221	3,66300366300365
0,2215	3,66300366300365
0,222	-1,22100122100122
0,2225	-10,989010989011
0,223	-10,989010989011
0,2235	-6,10500610500608
0,224	3,66300366300365
0,2245	8,54700854700852
0,225	8,54700854700852
0,2255	3,66300366300365
0,226	-6,10500610500608
0,2265	-10,989010989011
0,227	-6,10500610500608
0,2275	-10,989010989011
0,228	-10,989010989011
0,2285	-1,22100122100122
0,229	3,66300366300365
0,2295	8,54700854700852
0,23	18,3150183150183
0,2305	18,3150183150183
0,231	18,3150183150183
0,2315	13,4310134310134
0,232	13,4310134310134
0,2325	13,4310134310134
0,233	13,4310134310134
0,2335	13,4310134310134
0,234	18,3150183150183
0,2345	32,9670329670329
0,235	42,7350427350426
0,2355	37,8510378510377
0,236	23,1990231990231
0,2365	8,54700854700852
0,237	3,66300366300365
0,2375	-1,22100122100122
0,238	8,54700854700852
0,2385	13,4310134310134
0,239	18,3150183150183
0,2395	18,3150183150183
0,24	13,4310134310134
0,2405	3,66300366300365
0,241	-1,22100122100122
0,2415	-10,989010989011
0,242	-10,989010989011
0,2425	-10,989010989011
0,243	-10,989010989011
0,2435	-15,8730158730158
0,244	-25,6410256410256
0,2445	-30,5250305250304
0,245	-30,5250305250304
0,2455	-40,2930402930402
0,246	-52,5030525030523
0,2465	-45,177045177045
0,247	-25,6410256410256
0,2475	-10,989010989011
0,248	-10,989010989011
0,2485	-1,22100122100122
0,249	3,66300366300365
0,2495	8,54700854700852
0,25	18,3150183150183
0,2505	18,3150183150183
0,251	13,4310134310134
0,2515	8,54700854700852
0,252	8,54700854700852
0,2525	-1,22100122100122
0,253	-10,989010989011
0,2535	-10,989010989011
0,254	-10,989010989011
0,2545	3,66300366300365
0,255	18,3150183150183
0,2555	47,6190476190475
0,256	84,249084249084
0,2565	89,1330891330888
0,257	69,5970695970694
0,2575	42,7350427350426
0,258	28,083028083028
0,2585	18,3150183150183
0,259	-6,10500610500608
0,2595	-25,6410256410256
0,26	-40,2930402930402
0,2605	-30,5250305250304
0,261	-1,22100122100122
0,2615	54,9450549450548
0,262	98,9010989010986
0,2625	98,9010989010986
0,263	74,4810744810742
0,2635	54,9450549450548
0,264	37,8510378510377
0,2645	23,1990231990231
0,265	3,66300366300365
0,2655	-6,10500610500608
0,266	-10,989010989011
0,2665	-10,989010989011
0,267	-10,989010989011
0,2675	-10,989010989011
0,268	-20,7570207570207
0,2685	-20,7570207570207
0,269	-10,989010989011
0,2695	-20,7570207570207
0,27	-20,7570207570207
0,2705	-6,10500610500608
0,271	-1,22100122100122
0,2715	-1,22100122100122
0,272	-10,989010989011
0,2725	-30,5250305250304
0,273	-35,4090354090353
0,2735	-35,4090354090353
0,274	-25,6410256410256
0,2745	-20,7570207570207
0,275	-15,8730158730158
0,2755	-10,989010989011
0,276	-1,22100122100122
0,2765	3,66300366300365
0,277	3,66300366300365
0,2775	3,66300366300365
0,278	13,4310134310134
0,2785	23,1990231990231
0,279	28,083028083028
0,2795	28,083028083028
0,28	32,9670329670329
0,2805	28,083028083028
0,281	13,4310134310134
0,2815	-6,10500610500608
0,282	-20,7570207570207
0,2825	-30,5250305250304
0,283	-40,2930402930402
0,2835	-35,4090354090353
0,284	-30,5250305250304
0,2845	-10,989010989011
0,285	3,66300366300365
0,2855	23,1990231990231
0,286	54,9450549450548
0,2865	98,9010989010986
0,287	113,553113553113
0,2875	98,9010989010986
0,288	54,9450549450548
0,2885	18,3150183150183
0,289	-6,10500610500608
0,2895	-10,989010989011
0,29	-10,989010989011
0,2905	-10,989010989011
0,291	-15,8730158730158
0,2915	-20,7570207570207
0,292	-20,7570207570207
0,2925	-20,7570207570207
0,293	-15,8730158730158
0,2935	-15,8730158730158
0,294	-20,7570207570207
0,2945	-20,7570207570207
0,295	-20,7570207570207
0,2955	-20,7570207570207
0,296	-15,8730158730158
0,2965	-20,7570207570207
0,297	-15,8730158730158
0,2975	-10,989010989011
0,298	3,66300366300365
0,2985	18,3150183150183
0,299	18,3150183150183
0,2995	13,4310134310134
0,3	3,66300366300365
0,3005	3,66300366300365
0,301	8,54700854700852
0,3015	18,3150183150183
0,302	18,3150183150183
0,3025	18,3150183150183
0,303	18,3150183150183
0,3035	18,3150183150183
0,304	13,4310134310134
0,3045	8,54700854700852
0,305	13,4310134310134
0,3055	13,4310134310134
0,306	8,54700854700852
0,3065	8,54700854700852
0,307	8,54700854700852
0,3075	3,66300366300365
0,308	3,66300366300365
0,3085	3,66300366300365
0,309	3,66300366300365
0,3095	3,66300366300365
0,31	3,66300366300365
0,3105	3,66300366300365
0,311	3,66300366300365
0,3115	3,66300366300365
0,312	3,66300366300365
0,3125	8,54700854700852
0,313	3,66300366300365
0,3135	3,66300366300365
0,314	3,66300366300365
0,3145	3,66300366300365
0,315	8,54700854700852
0,3155	8,54700854700852
0,316	8,54700854700852
0,3165	3,66300366300365
0,317	3,66300366300365
0,3175	3,66300366300365
0,318	8,54700854700852
0,3185	13,4310134310134
0,319	18,3150183150183
0,3195	18,3150183150183
0,32	23,1990231990231
0,3205	18,3150183150183
0,321	18,3150183150183
0,3215	13,4310134310134
0,322	13,4310134310134
0,3225	8,54700854700852
0,323	3,66300366300365
0,3235	3,66300366300365
0,324	-1,22100122100122
0,3245	-1,22100122100122
0,325	-1,22100122100122
0,3255	-10,989010989011
0,326	-10,989010989011
0,3265	-10,989010989011
0,327	-6,10500610500608
0,3275	-6,10500610500608
0,328	-6,10500610500608
0,3285	-1,22100122100122
0,329	-1,22100122100122
0,3295	3,66300366300365
0,33	3,66300366300365
0,3305	8,54700854700852
0,331	3,66300366300365
0,3315	3,66300366300365
0,332	3,66300366300365
0,3325	8,54700854700852
0,333	8,54700854700852
0,3335	13,4310134310134
0,334	8,54700854700852
0,3345	8,54700854700852
0,335	3,66300366300365
0,3355	3,66300366300365
0,336	3,66300366300365
0,3365	8,54700854700852
0,337	3,66300366300365
0,3375	-6,10500610500608
0,338	-10,989010989011
0,3385	-10,989010989011
0,339	-10,989010989011
0,3395	-10,989010989011
0,34	-10,989010989011
0,3405	3,66300366300365
0,341	23,1990231990231
0,3415	28,083028083028
0,342	23,1990231990231
0,3425	18,3150183150183
0,343	8,54700854700852
0,3435	-1,22100122100122
0,344	-1,22100122100122
0,3445	3,66300366300365
0,345	8,54700854700852
0,3455	23,1990231990231
0,346	42,7350427350426
0,3465	59,8290598290596
0,347	64,7130647130645
0,3475	59,8290598290596
0,348	37,8510378510377
0,3485	8,54700854700852
0,349	-6,10500610500608
0,3495	-10,989010989011
0,35	-10,989010989011
0,3505	-6,10500610500608
0,351	-6,10500610500608
0,3515	-10,989010989011
0,352	-20,7570207570207
0,3525	-25,6410256410256
0,353	-25,6410256410256
0,3535	-20,7570207570207
0,354	-15,8730158730158
0,3545	-10,989010989011
0,355	-10,989010989011
0,3555	3,66300366300365
0,356	3,66300366300365
0,3565	8,54700854700852
0,357	8,54700854700852
0,3575	13,4310134310134
0,358	8,54700854700852
0,3585	3,66300366300365
0,359	-1,22100122100122
0,3595	-1,22100122100122
0,36	-1,22100122100122
0,3605	-6,10500610500608
0,361	-10,989010989011
0,3615	-10,989010989011
0,362	-10,989010989011
0,3625	-15,8730158730158
0,363	-20,7570207570207
0,3635	-15,8730158730158
0,364	-10,989010989011
0,3645	3,66300366300365
0,365	23,1990231990231
0,3655	32,9670329670329
0,366	32,9670329670329
0,3665	37,8510378510377
0,367	42,7350427350426
0,3675	42,7350427350426
0,368	32,9670329670329
0,3685	32,9670329670329
0,369	47,6190476190475
0,3695	59,8290598290596
0,37	47,6190476190475
0,3705	32,9670329670329
0,371	8,54700854700852
0,3715	-10,989010989011
0,372	-15,8730158730158
0,3725	-20,7570207570207
0,373	-25,6410256410256
0,3735	-30,5250305250304
0,374	-30,5250305250304
0,3745	-20,7570207570207
0,375	-10,989010989011
0,3755	-10,989010989011
0,376	-10,989010989011
0,3765	-10,989010989011
0,377	-15,8730158730158
0,3775	-20,7570207570207
0,378	-20,7570207570207
0,3785	-20,7570207570207
0,379	-20,7570207570207
0,3795	-20,7570207570207
0,38	-20,7570207570207
0,3805	-10,989010989011
0,381	3,66300366300365
0,3815	28,083028083028
0,382	69,5970695970694
0,3825	69,5970695970694
0,383	59,8290598290596
0,3835	37,8510378510377
0,384	28,083028083028
0,3845	28,083028083028
0,385	28,083028083028
0,3855	28,083028083028
0,386	28,083028083028
0,3865	18,3150183150183
0,387	3,66300366300365
0,3875	3,66300366300365
0,388	8,54700854700852
0,3885	23,1990231990231
0,389	37,8510378510377
0,3895	42,7350427350426
0,39	28,083028083028
0,3905	13,4310134310134
0,391	8,54700854700852
0,3915	8,54700854700852
0,392	13,4310134310134
0,3925	8,54700854700852
0,393	3,66300366300365
0,3935	3,66300366300365
0,394	3,66300366300365
0,3945	-6,10500610500608
0,395	-15,8730158730158
0,3955	-30,5250305250304
0,396	-35,4090354090353
0,3965	-40,2930402930402
0,397	-40,2930402930402
0,3975	-40,2930402930402
0,398	-40,2930402930402
0,3985	-45,177045177045
0,399	-45,177045177045
0,3995	-45,177045177045
0,4	-52,5030525030523
0,4005	-52,5030525030523
0,401	-45,177045177045
0,4015	-25,6410256410256
0,402	-6,10500610500608
0,4025	13,4310134310134
0,403	18,3150183150183
0,4035	13,4310134310134
0,404	23,1990231990231
0,4045	59,8290598290596
0,405	84,249084249084
0,4055	69,5970695970694
0,406	47,6190476190475
0,4065	32,9670329670329
0,407	28,083028083028
0,4075	32,9670329670329
0,408	37,8510378510377
0,4085	28,083028083028
0,409	18,3150183150183
0,4095	23,1990231990231
0,41	32,9670329670329
0,4105	32,9670329670329
0,411	32,9670329670329
0,4115	28,083028083028
0,412	18,3150183150183
0,4125	18,3150183150183
0,413	28,083028083028
0,4135	32,9670329670329
0,414	37,8510378510377
0,4145	28,083028083028
0,415	23,1990231990231
0,4155	18,3150183150183
0,416	3,66300366300365
0,4165	-1,22100122100122
0,417	-10,989010989011
0,4175	-20,7570207570207
0,418	-30,5250305250304
0,4185	-30,5250305250304
0,419	-30,5250305250304
0,4195	-30,5250305250304
0,42	-30,5250305250304
0,4205	-25,6410256410256
0,421	-20,7570207570207
0,4215	-20,7570207570207
0,422	-15,8730158730158
0,4225	-10,989010989011
0,423	-10,989010989011
0,4235	-1,22100122100122
0,424	3,66300366300365
0,4245	3,66300366300365
0,425	-1,22100122100122
0,4255	-6,10500610500608
0,426	-6,10500610500608
0,4265	-1,22100122100122
0,427	-6,10500610500608
0,4275	-6,10500610500608
0,428	-6,10500610500608
0,4285	-1,22100122100122
0,429	3,66300366300365
0,4295	3,66300366300365
0,43	3,66300366300365
0,4305	3,66300366300365
0,431	3,66300366300365
0,4315	3,66300366300365
0,432	8,54700854700852
0,4325	8,54700854700852
0,433	13,4310134310134
0,4335	13,4310134310134
0,434	18,3150183150183
0,4345	13,4310134310134
0,435	13,4310134310134
0,4355	8,54700854700852
0,436	8,54700854700852
0,4365	3,66300366300365
0,437	3,66300366300365
0,4375	-6,10500610500608
0,438	-6,10500610500608
0,4385	-10,989010989011
0,439	-10,989010989011
0,4395	-6,10500610500608
0,44	3,66300366300365
0,4405	8,54700854700852
0,441	13,4310134310134
0,4415	18,3150183150183
0,442	18,3150183150183
0,4425	8,54700854700852
0,443	8,54700854700852
0,4435	8,54700854700852
0,444	8,54700854700852
0,4445	8,54700854700852
0,445	8,54700854700852
0,4455	8,54700854700852
0,446	8,54700854700852
0,4465	13,4310134310134
0,447	18,3150183150183
0,4475	18,3150183150183
0,448	18,3150183150183
0,4485	8,54700854700852
0,449	3,66300366300365
0,4495	-1,22100122100122
0,45	-1,22100122100122
0,4505	3,66300366300365
0,451	3,66300366300365
0,4515	8,54700854700852
0,452	8,54700854700852
0,4525	8,54700854700852
0,453	8,54700854700852
0,4535	8,54700854700852
0,454	8,54700854700852
0,4545	8,54700854700852
0,455	3,66300366300365
0,4555	3,66300366300365
0,456	8,54700854700852
0,4565	13,4310134310134
0,457	18,3150183150183
0,4575	18,3150183150183
0,458	18,3150183150183
0,4585	13,4310134310134
0,459	3,66300366300365
0,4595	-6,10500610500608
0,46	-6,10500610500608
0,4605	-10,989010989011
0,461	-10,989010989011
0,4615	-10,989010989011
0,462	-10,989010989011
0,4625	-10,989010989011
0,463	-10,989010989011
0,4635	-10,989010989011
0,464	-6,10500610500608
0,4645	3,66300366300365
0,465	3,66300366300365
0,4655	3,66300366300365
0,466	8,54700854700852
0,4665	13,4310134310134
0,467	13,4310134310134
0,4675	8,54700854700852
0,468	8,54700854700852
0,4685	13,4310134310134
0,469	13,4310134310134
0,4695	3,66300366300365
0,47	-1,22100122100122
0,4705	-6,10500610500608
0,471	-1,22100122100122
0,4715	3,66300366300365
0,472	8,54700854700852
0,4725	3,66300366300365
0,473	-1,22100122100122
0,4735	-1,22100122100122
0,474	-1,22100122100122
0,4745	-1,22100122100122
0,475	-6,10500610500608
0,4755	-6,10500610500608
0,476	-1,22100122100122
0,4765	18,3150183150183
0,477	47,6190476190475
0,4775	74,4810744810742
0,478	69,5970695970694
0,4785	37,8510378510377
0,479	8,54700854700852
0,4795	3,66300366300365
0,48	-1,22100122100122
0,4805	-6,10500610500608
0,481	-10,989010989011
0,4815	-10,989010989011
0,482	-10,989010989011
0,4825	-10,989010989011
0,483	-10,989010989011
0,4835	-6,10500610500608
0,484	3,66300366300365
0,4845	-1,22100122100122
0,485	-6,10500610500608
0,4855	-10,989010989011
0,486	-6,10500610500608
0,4865	8,54700854700852
0,487	8,54700854700852
0,4875	-1,22100122100122
0,488	-6,10500610500608
0,4885	-6,10500610500608
0,489	-6,10500610500608
0,4895	-6,10500610500608
0,49	3,66300366300365
0,4905	3,66300366300365
0,491	3,66300366300365
0,4915	3,66300366300365
0,492	8,54700854700852
0,4925	13,4310134310134
0,493	18,3150183150183
0,4935	23,1990231990231
0,494	28,083028083028
0,4945	28,083028083028
0,495	23,1990231990231
0,4955	13,4310134310134
0,496	-1,22100122100122
0,4965	-10,989010989011
0,497	-20,7570207570207
0,4975	-20,7570207570207
0,498	-25,6410256410256
0,4985	-20,7570207570207
0,499	-10,989010989011
0,4995	-10,989010989011
0,5	-1,22100122100122
0,5005	3,66300366300365
0,501	8,54700854700852
0,5015	8,54700854700852
0,502	13,4310134310134
0,5025	13,4310134310134
0,503	13,4310134310134
0,5035	18,3150183150183
0,504	23,1990231990231
0,5045	42,7350427350426
0,505	69,5970695970694
0,5055	89,1330891330888
0,506	94,0170940170937
0,5065	74,4810744810742
0,507	42,7350427350426
0,5075	18,3150183150183
0,508	3,66300366300365
0,5085	-10,989010989011
0,509	-15,8730158730158
0,5095	-30,5250305250304
0,51	-45,177045177045
0,5105	-57,3870573870572
0,511	-67,1550671550669
0,5115	-72,0390720390718
0,512	-72,0390720390718
0,5125	-57,3870573870572
0,513	-52,5030525030523
0,5135	-40,2930402930402
0,514	-25,6410256410256
0,5145	-15,8730158730158
0,515	-10,989010989011
0,5155	-10,989010989011
0,516	-10,989010989011
0,5165	-1,22100122100122
0,517	8,54700854700852
0,5175	13,4310134310134
0,518	18,3150183150183
0,5185	23,1990231990231
0,519	23,1990231990231
0,5195	28,083028083028
0,52	32,9670329670329
0,5205	37,8510378510377
0,521	32,9670329670329
0,5215	32,9670329670329
0,522	32,9670329670329
0,5225	42,7350427350426
0,523	54,9450549450548
0,5235	59,8290598290596
0,524	64,7130647130645
0,5245	47,6190476190475
0,525	13,4310134310134
0,5255	-6,10500610500608
0,526	-10,989010989011
0,5265	-15,8730158730158
0,527	-15,8730158730158
0,5275	-10,989010989011
0,528	-10,989010989011
0,5285	3,66300366300365
0,529	18,3150183150183
0,5295	54,9450549450548
0,53	89,1330891330888
0,5305	98,9010989010986
0,531	64,7130647130645
0,5315	23,1990231990231
0,532	-6,10500610500608
0,5325	-20,7570207570207
0,533	-35,4090354090353
0,5335	-45,177045177045
0,534	-52,5030525030523
0,5345	-57,3870573870572
0,535	-52,5030525030523
0,5355	-40,2930402930402
0,536	-30,5250305250304
0,5365	-25,6410256410256
0,537	-20,7570207570207
0,5375	-15,8730158730158
0,538	-10,989010989011
0,5385	3,66300366300365
0,539	13,4310134310134
0,5395	13,4310134310134
0,54	13,4310134310134
0,5405	8,54700854700852
0,541	8,54700854700852
0,5415	8,54700854700852
0,542	8,54700854700852
0,5425	8,54700854700852
0,543	13,4310134310134
0,5435	13,4310134310134
0,544	8,54700854700852
0,5445	8,54700854700852
0,545	8,54700854700852
0,5455	8,54700854700852
0,546	3,66300366300365
0,5465	3,66300366300365
0,547	3,66300366300365
0,5475	3,66300366300365
0,548	-1,22100122100122
0,5485	-6,10500610500608
0,549	-6,10500610500608
0,5495	-6,10500610500608
0,55	-1,22100122100122
0,5505	-1,22100122100122
0,551	3,66300366300365
0,5515	3,66300366300365
0,552	3,66300366300365
0,5525	3,66300366300365
0,553	8,54700854700852
0,5535	8,54700854700852
0,554	8,54700854700852
0,5545	13,4310134310134
0,555	23,1990231990231
0,5555	28,083028083028
0,556	28,083028083028
0,5565	32,9670329670329
0,557	47,6190476190475
0,5575	42,7350427350426
0,558	28,083028083028
0,5585	23,1990231990231
0,559	13,4310134310134
0,5595	13,4310134310134
0,56	13,4310134310134
0,5605	13,4310134310134
0,561	8,54700854700852
0,5615	3,66300366300365
0,562	-6,10500610500608
0,5625	-10,989010989011
0,563	-20,7570207570207
0,5635	-30,5250305250304
0,564	-25,6410256410256
0,5645	-30,5250305250304
0,565	-20,7570207570207
0,5655	-15,8730158730158
0,566	-10,989010989011
0,5665	-20,7570207570207
0,567	-30,5250305250304
0,5675	-30,5250305250304
0,568	-25,6410256410256
0,5685	-20,7570207570207
0,569	-15,8730158730158
0,5695	-10,989010989011
0,57	-6,10500610500608
0,5705	-1,22100122100122
0,571	13,4310134310134
0,5715	18,3150183150183
0,572	28,083028083028
0,5725	23,1990231990231
0,573	28,083028083028
0,5735	28,083028083028
0,574	32,9670329670329
0,5745	42,7350427350426
0,575	54,9450549450548
0,5755	64,7130647130645
0,576	89,1330891330888
0,5765	108,669108669108
0,577	108,669108669108
0,5775	89,1330891330888
0,578	64,7130647130645
0,5785	32,9670329670329
0,579	3,66300366300365
0,5795	-10,989010989011
0,58	-25,6410256410256
0,5805	-35,4090354090353
0,581	-30,5250305250304
0,5815	-20,7570207570207
0,582	-10,989010989011
0,5825	3,66300366300365
0,583	-10,989010989011
0,5835	-20,7570207570207
0,584	-30,5250305250304
0,5845	-30,5250305250304
0,585	-20,7570207570207
0,5855	-10,989010989011
0,586	-6,10500610500608
0,5865	-6,10500610500608
0,587	-10,989010989011
0,5875	-10,989010989011
0,588	-10,989010989011
0,5885	-10,989010989011
0,589	-20,7570207570207
0,5895	-25,6410256410256
0,59	-30,5250305250304
0,5905	-30,5250305250304
0,591	-30,5250305250304
0,5915	-30,5250305250304
0,592	-20,7570207570207
0,5925	-10,989010989011
0,593	-6,10500610500608
0,5935	8,54700854700852
0,594	28,083028083028
0,5945	37,8510378510377
0,595	28,083028083028
0,5955	23,1990231990231
0,596	18,3150183150183
0,5965	23,1990231990231
0,597	32,9670329670329
0,5975	59,8290598290596
0,598	69,5970695970694
0,5985	69,5970695970694
0,599	64,7130647130645
0,5995	42,7350427350426
0,6	18,3150183150183
0,6005	3,66300366300365
0,601	-10,989010989011
0,6015	-15,8730158730158
0,602	-20,7570207570207
0,6025	-25,6410256410256
0,603	-20,7570207570207
0,6035	-15,8730158730158
0,604	-10,989010989011
0,6045	-6,10500610500608
0,605	-6,10500610500608
0,6055	-6,10500610500608
0,606	-6,10500610500608
0,6065	-1,22100122100122
0,607	-6,10500610500608
0,6075	-10,989010989011
0,608	-20,7570207570207
0,6085	-20,7570207570207
0,609	-20,7570207570207
0,6095	-25,6410256410256
0,61	-25,6410256410256
0,6105	-20,7570207570207
0,611	-10,989010989011
0,6115	-1,22100122100122
0,612	-1,22100122100122
0,6125	-1,22100122100122
0,613	-6,10500610500608
0,6135	-6,10500610500608
0,614	3,66300366300365
0,6145	23,1990231990231
0,615	37,8510378510377
0,6155	64,7130647130645
0,616	84,249084249084
0,6165	89,1330891330888
0,617	89,1330891330888
0,6175	74,4810744810742
0,618	42,7350427350426
0,6185	8,54700854700852
0,619	-10,989010989011
0,6195	-20,7570207570207
0,62	-20,7570207570207
0,6205	-10,989010989011
0,621	23,1990231990231
0,6215	59,8290598290596
0,622	69,5970695970694
0,6225	42,7350427350426
0,623	13,4310134310134
0,6235	-15,8730158730158
0,624	-40,2930402930402
0,6245	-40,2930402930402
0,625	-25,6410256410256
0,6255	-10,989010989011
0,626	-10,989010989011
0,6265	-6,10500610500608
0,627	8,54700854700852
0,6275	23,1990231990231
0,628	32,9670329670329
0,6285	32,9670329670329
0,629	28,083028083028
0,6295	18,3150183150183
0,63	3,66300366300365
0,6305	-10,989010989011
0,631	-20,7570207570207
0,6315	-30,5250305250304
0,632	-35,4090354090353
0,6325	-35,4090354090353
0,633	-40,2930402930402
0,6335	-45,177045177045
0,634	-45,177045177045
0,6345	-45,177045177045
0,635	-35,4090354090353
0,6355	-30,5250305250304
0,636	-15,8730158730158
0,6365	-10,989010989011
0,637	-1,22100122100122
0,6375	8,54700854700852
0,638	13,4310134310134
0,6385	18,3150183150183
0,639	8,54700854700852
0,6395	13,4310134310134
0,64	18,3150183150183
0,6405	13,4310134310134
0,641	18,3150183150183
0,6415	23,1990231990231
0,642	18,3150183150183
0,6425	8,54700854700852
0,643	3,66300366300365
0,6435	-1,22100122100122
0,644	-1,22100122100122
0,6445	3,66300366300365
0,645	8,54700854700852
0,6455	18,3150183150183
0,646	18,3150183150183
0,6465	18,3150183150183
0,647	18,3150183150183
0,6475	28,083028083028
0,648	32,9670329670329
0,6485	47,6190476190475
0,649	59,8290598290596
0,6495	59,8290598290596
0,65	59,8290598290596
0,6505	59,8290598290596
0,651	64,7130647130645
0,6515	69,5970695970694
0,652	69,5970695970694
0,6525	69,5970695970694
0,653	54,9450549450548
0,6535	23,1990231990231
0,654	3,66300366300365
0,6545	-10,989010989011
0,655	-20,7570207570207
0,6555	-30,5250305250304
0,656	-35,4090354090353
0,6565	-40,2930402930402
0,657	-40,2930402930402
0,6575	-35,4090354090353
0,658	-35,4090354090353
0,6585	-30,5250305250304
0,659	-30,5250305250304
0,6595	-25,6410256410256
0,66	-20,7570207570207
0,6605	-20,7570207570207
0,661	-10,989010989011
0,6615	-10,989010989011
0,662	-10,989010989011
0,6625	-10,989010989011
0,663	-10,989010989011
0,6635	-10,989010989011
0,664	-10,989010989011
0,6645	-10,989010989011
0,665	-6,10500610500608
0,6655	-6,10500610500608
0,666	-6,10500610500608
0,6665	-1,22100122100122
0,667	-1,22100122100122
0,6675	-6,10500610500608
0,668	-10,989010989011
0,6685	-10,989010989011
0,669	-6,10500610500608
0,6695	3,66300366300365
0,67	18,3150183150183
0,6705	28,083028083028
0,671	32,9670329670329
0,6715	42,7350427350426
0,672	47,6190476190475
0,6725	74,4810744810742
0,673	74,4810744810742
0,6735	54,9450549450548
0,674	23,1990231990231
0,6745	8,54700854700852
0,675	3,66300366300365
0,6755	-6,10500610500608
0,676	-10,989010989011
0,6765	-10,989010989011
0,677	-10,989010989011
0,6775	-10,989010989011
0,678	-15,8730158730158
0,6785	-25,6410256410256
0,679	-25,6410256410256
0,6795	-20,7570207570207
0,68	-15,8730158730158
0,6805	-10,989010989011
0,681	-10,989010989011
0,6815	-10,989010989011
0,682	-6,10500610500608
0,6825	3,66300366300365
0,683	3,66300366300365
0,6835	3,66300366300365
0,684	-1,22100122100122
0,6845	-1,22100122100122
0,685	8,54700854700852
0,6855	18,3150183150183
0,686	37,8510378510377
0,6865	64,7130647130645
0,687	79,3650793650791
0,6875	89,1330891330888
0,688	74,4810744810742
0,6885	47,6190476190475
0,689	18,3150183150183
0,6895	-6,10500610500608
0,69	-10,989010989011
0,6905	-6,10500610500608
0,691	3,66300366300365
0,6915	3,66300366300365
0,692	3,66300366300365
0,6925	8,54700854700852
0,693	8,54700854700852
0,6935	3,66300366300365
0,694	3,66300366300365
0,6945	-1,22100122100122
0,695	-6,10500610500608
0,6955	-1,22100122100122
0,696	-1,22100122100122
0,6965	-6,10500610500608
0,697	-10,989010989011
0,6975	-25,6410256410256
0,698	-40,2930402930402
0,6985	-45,177045177045
0,699	-35,4090354090353
0,6995	-30,5250305250304
0,7	-20,7570207570207
0,7005	-15,8730158730158
0,701	-1,22100122100122
0,7015	18,3150183150183
0,702	28,083028083028
0,7025	28,083028083028
0,703	28,083028083028
0,7035	23,1990231990231
0,704	23,1990231990231
0,7045	23,1990231990231
0,705	8,54700854700852
0,7055	-10,989010989011
0,706	-15,8730158730158
0,7065	-20,7570207570207
0,707	-20,7570207570207
0,7075	-15,8730158730158
0,708	-10,989010989011
0,7085	-1,22100122100122
0,709	13,4310134310134
0,7095	32,9670329670329
0,71	42,7350427350426
0,7105	42,7350427350426
0,711	37,8510378510377
0,7115	32,9670329670329
0,712	23,1990231990231
0,7125	18,3150183150183
0,713	3,66300366300365
0,7135	3,66300366300365
0,714	-1,22100122100122
0,7145	-10,989010989011
0,715	-15,8730158730158
0,7155	-25,6410256410256
0,716	-30,5250305250304
0,7165	-35,4090354090353
0,717	-52,5030525030523
0,7175	-62,2710622710621
0,718	-62,2710622710621
0,7185	-52,5030525030523
0,719	-40,2930402930402
0,7195	-30,5250305250304
0,72	-10,989010989011
0,7205	8,54700854700852
0,721	23,1990231990231
0,7215	64,7130647130645
0,722	113,553113553113
0,7225	142,857142857143
0,723	123,321123321123
0,7235	89,1330891330888
0,724	69,5970695970694
0,7245	59,8290598290596
0,725	47,6190476190475
0,7255	47,6190476190475
0,726	37,8510378510377
0,7265	28,083028083028
0,727	28,083028083028
0,7275	28,083028083028
0,728	18,3150183150183
0,7285	3,66300366300365
0,729	-10,989010989011
0,7295	-20,7570207570207
0,73	-30,5250305250304
0,7305	-40,2930402930402
0,731	-52,5030525030523
0,7315	-52,5030525030523
0,732	-52,5030525030523
0,7325	-45,177045177045
0,733	-40,2930402930402
0,7335	-30,5250305250304
0,734	-20,7570207570207
0,7345	-10,989010989011
0,735	-6,10500610500608
0,7355	3,66300366300365
0,736	8,54700854700852
0,7365	18,3150183150183
0,737	23,1990231990231
0,7375	23,1990231990231
0,738	28,083028083028
0,7385	28,083028083028
0,739	28,083028083028
0,7395	32,9670329670329
0,74	47,6190476190475
0,7405	54,9450549450548
0,741	47,6190476190475
0,7415	42,7350427350426
0,742	28,083028083028
0,7425	13,4310134310134
0,743	-1,22100122100122
0,7435	-10,989010989011
0,744	-10,989010989011
0,7445	-15,8730158730158
0,745	-15,8730158730158
0,7455	-20,7570207570207
0,746	-20,7570207570207
0,7465	-20,7570207570207
0,747	-25,6410256410256
0,7475	-20,7570207570207
0,748	-20,7570207570207
0,7485	-30,5250305250304
0,749	-40,2930402930402
0,7495	-40,2930402930402
0,75	-35,4090354090353
0,7505	-30,5250305250304
0,751	-20,7570207570207
0,7515	-15,8730158730158
0,752	-10,989010989011
0,7525	-10,989010989011
0,753	-10,989010989011
0,7535	-6,10500610500608
0,754	-1,22100122100122
0,7545	3,66300366300365
0,755	3,66300366300365
0,7555	8,54700854700852
0,756	23,1990231990231
0,7565	37,8510378510377
0,757	59,8290598290596
0,7575	89,1330891330888
0,758	118,437118437118
0,7585	133,089133089133
0,759	128,205128205129
0,7595	108,669108669108
0,76	74,4810744810742
0,7605	37,8510378510377
0,761	8,54700854700852
0,7615	-10,989010989011
0,762	-30,5250305250304
0,7625	-40,2930402930402
0,763	-52,5030525030523
0,7635	-52,5030525030523
0,764	-45,177045177045
0,7645	-40,2930402930402
0,765	-10,989010989011
0,7655	18,3150183150183
0,766	28,083028083028
0,7665	13,4310134310134
0,767	3,66300366300365
0,7675	-6,10500610500608
0,768	-10,989010989011
0,7685	-1,22100122100122
0,769	13,4310134310134
0,7695	18,3150183150183
0,77	8,54700854700852
0,7705	3,66300366300365
0,771	-10,989010989011
0,7715	-10,989010989011
0,772	-10,989010989011
0,7725	-10,989010989011
0,773	-15,8730158730158
0,7735	-15,8730158730158
0,774	-15,8730158730158
0,7745	-10,989010989011
0,775	-10,989010989011
0,7755	-10,989010989011
0,776	-10,989010989011
0,7765	-10,989010989011
0,777	-10,989010989011
0,7775	-10,989010989011
0,778	-15,8730158730158
0,7785	-25,6410256410256
0,779	-25,6410256410256
0,7795	-20,7570207570207
0,78	-10,989010989011
0,7805	-6,10500610500608
0,781	3,66300366300365
0,7815	3,66300366300365
0,782	3,66300366300365
0,7825	3,66300366300365
0,783	8,54700854700852
0,7835	18,3150183150183
0,784	32,9670329670329
0,7845	47,6190476190475
0,785	42,7350427350426
0,7855	32,9670329670329
0,786	23,1990231990231
0,7865	18,3150183150183
0,787	3,66300366300365
0,7875	-6,10500610500608
0,788	-10,989010989011
0,7885	-10,989010989011
0,789	-1,22100122100122
0,7895	-6,10500610500608
0,79	-10,989010989011
0,7905	-10,989010989011
0,791	-10,989010989011
0,7915	-1,22100122100122
0,792	8,54700854700852
0,7925	23,1990231990231
0,793	32,9670329670329
0,7935	42,7350427350426
0,794	54,9450549450548
0,7945	69,5970695970694
0,795	69,5970695970694
0,7955	59,8290598290596
0,796	32,9670329670329
0,7965	8,54700854700852
0,797	-10,989010989011
0,7975	-15,8730158730158
0,798	-25,6410256410256
0,7985	-30,5250305250304
0,799	-30,5250305250304
0,7995	-35,4090354090353
0,8	-35,4090354090353
0,8005	-40,2930402930402
0,801	-52,5030525030523
0,8015	-57,3870573870572
0,802	-57,3870573870572
0,8025	-45,177045177045
0,803	-30,5250305250304
0,8035	-20,7570207570207
0,804	-6,10500610500608
0,8045	13,4310134310134
0,805	42,7350427350426
0,8055	84,249084249084
0,806	128,205128205129
0,8065	137,973137973138
0,807	128,205128205129
0,8075	98,9010989010986
0,808	74,4810744810742
0,8085	47,6190476190475
0,809	42,7350427350426
0,8095	37,8510378510377
0,81	28,083028083028
0,8105	-1,22100122100122
0,811	-15,8730158730158
0,8115	-30,5250305250304
0,812	-40,2930402930402
0,8125	-45,177045177045
0,813	-57,3870573870572
0,8135	-57,3870573870572
0,814	-52,5030525030523
0,8145	-45,177045177045
0,815	-30,5250305250304
0,8155	-10,989010989011
0,816	-10,989010989011
0,8165	-1,22100122100122
0,817	8,54700854700852
0,8175	18,3150183150183
0,818	28,083028083028
0,8185	42,7350427350426
0,819	64,7130647130645
0,8195	94,0170940170937
0,82	108,669108669108
0,8205	108,669108669108
0,821	84,249084249084
0,8215	47,6190476190475
0,822	23,1990231990231
0,8225	8,54700854700852
0,823	-6,10500610500608
0,8235	-30,5250305250304
0,824	-57,3870573870572
0,8245	-72,0390720390718
0,825	-76,9230769230767
0,8255	-76,9230769230767
0,826	-72,0390720390718
0,8265	-67,1550671550669
0,827	-57,3870573870572
0,8275	-40,2930402930402
0,828	-30,5250305250304
0,8285	-15,8730158730158
0,829	-6,10500610500608
0,8295	-6,10500610500608
0,83	-10,989010989011
0,8305	-10,989010989011
0,831	-10,989010989011
0,8315	-10,989010989011
0,832	-10,989010989011
0,8325	-10,989010989011
0,833	-10,989010989011
0,8335	-6,10500610500608
0,834	-6,10500610500608
0,8345	-6,10500610500608
0,835	3,66300366300365
0,8355	8,54700854700852
0,836	18,3150183150183
0,8365	28,083028083028
0,837	32,9670329670329
0,8375	32,9670329670329
0,838	32,9670329670329
0,8385	37,8510378510377
0,839	47,6190476190475
0,8395	59,8290598290596
0,84	69,5970695970694
0,8405	64,7130647130645
0,841	47,6190476190475
0,8415	23,1990231990231
0,842	8,54700854700852
0,8425	-1,22100122100122
0,843	-1,22100122100122
0,8435	-6,10500610500608
0,844	-6,10500610500608
0,8445	-10,989010989011
0,845	-10,989010989011
0,8455	-10,989010989011
0,846	-10,989010989011
0,8465	-6,10500610500608
0,847	-10,989010989011
0,8475	-10,989010989011
0,848	-6,10500610500608
0,8485	-6,10500610500608
0,849	-6,10500610500608
0,8495	-6,10500610500608
0,85	-6,10500610500608
0,8505	-10,989010989011
0,851	-6,10500610500608
0,8515	-6,10500610500608
0,852	-1,22100122100122
0,8525	3,66300366300365
0,853	8,54700854700852
0,8535	13,4310134310134
0,854	13,4310134310134
0,8545	8,54700854700852
0,855	3,66300366300365
0,8555	-1,22100122100122
0,856	-1,22100122100122
0,8565	3,66300366300365
0,857	18,3150183150183
0,8575	28,083028083028
0,858	28,083028083028
0,8585	23,1990231990231
0,859	8,54700854700852
0,8595	8,54700854700852
0,86	3,66300366300365
0,8605	-1,22100122100122
0,861	-1,22100122100122
0,8615	8,54700854700852
0,862	8,54700854700852
0,8625	13,4310134310134
0,863	8,54700854700852
0,8635	8,54700854700852
0,864	23,1990231990231
0,8645	54,9450549450548
0,865	64,7130647130645
0,8655	37,8510378510377
0,866	3,66300366300365
0,8665	-15,8730158730158
0,867	-25,6410256410256
0,8675	-25,6410256410256
0,868	-25,6410256410256
0,8685	-15,8730158730158
0,869	-6,10500610500608
0,8695	-6,10500610500608
0,87	-6,10500610500608
0,8705	-6,10500610500608
0,871	-6,10500610500608
0,8715	-10,989010989011
0,872	-20,7570207570207
0,8725	-20,7570207570207
0,873	-15,8730158730158
0,8735	-10,989010989011
0,874	-10,989010989011
0,8745	-10,989010989011
0,875	-10,989010989011
0,8755	-10,989010989011
0,876	-6,10500610500608
0,8765	-10,989010989011
0,877	-10,989010989011
0,8775	-6,10500610500608
0,878	8,54700854700852
0,8785	37,8510378510377
0,879	59,8290598290596
0,8795	64,7130647130645
0,88	47,6190476190475
0,8805	28,083028083028
0,881	8,54700854700852
0,8815	-10,989010989011
0,882	-25,6410256410256
0,8825	-20,7570207570207
0,883	-20,7570207570207
0,8835	-10,989010989011
0,884	-6,10500610500608
0,8845	-1,22100122100122
0,885	18,3150183150183
0,8855	42,7350427350426
0,886	89,1330891330888
0,8865	118,437118437118
0,887	98,9010989010986
0,8875	54,9450549450548
0,888	8,54700854700852
0,8885	-10,989010989011
0,889	-20,7570207570207
0,8895	-30,5250305250304
0,89	-30,5250305250304
0,8905	-25,6410256410256
0,891	-20,7570207570207
0,8915	-25,6410256410256
0,892	-10,989010989011
0,8925	-6,10500610500608
0,893	3,66300366300365
0,8935	-6,10500610500608
0,894	-15,8730158730158
0,8945	-20,7570207570207
0,895	-15,8730158730158
0,8955	-10,989010989011
0,896	3,66300366300365
0,8965	18,3150183150183
0,897	32,9670329670329
0,8975	47,6190476190475
0,898	47,6190476190475
0,8985	47,6190476190475
0,899	47,6190476190475
0,8995	47,6190476190475
0,9	47,6190476190475
0,9005	47,6190476190475
0,901	37,8510378510377
0,9015	32,9670329670329
0,902	23,1990231990231
0,9025	18,3150183150183
0,903	8,54700854700852
0,9035	3,66300366300365
0,904	8,54700854700852
0,9045	18,3150183150183
0,905	13,4310134310134
0,9055	18,3150183150183
0,906	8,54700854700852
0,9065	-6,10500610500608
0,907	-10,989010989011
0,9075	-15,8730158730158
0,908	-15,8730158730158
0,9085	-20,7570207570207
0,909	-20,7570207570207
0,9095	-20,7570207570207
0,91	-20,7570207570207
0,9105	-10,989010989011
0,911	-10,989010989011
0,9115	-10,989010989011
0,912	-15,8730158730158
0,9125	-20,7570207570207
0,913	-20,7570207570207
0,9135	-25,6410256410256
0,914	-25,6410256410256
0,9145	-30,5250305250304
0,915	-25,6410256410256
0,9155	-30,5250305250304
0,916	-30,5250305250304
0,9165	-20,7570207570207
0,917	-20,7570207570207
0,9175	-20,7570207570207
0,918	-20,7570207570207
0,9185	-20,7570207570207
0,919	-25,6410256410256
0,9195	-20,7570207570207
0,92	-15,8730158730158
0,9205	-10,989010989011
0,921	-1,22100122100122
0,9215	3,66300366300365
0,922	8,54700854700852
0,9225	23,1990231990231
0,923	32,9670329670329
0,9235	42,7350427350426
0,924	37,8510378510377
0,9245	28,083028083028
0,925	23,1990231990231
0,9255	23,1990231990231
0,926	32,9670329670329
0,9265	47,6190476190475
0,927	64,7130647130645
0,9275	74,4810744810742
0,928	74,4810744810742
0,9285	69,5970695970694
0,929	47,6190476190475
0,9295	37,8510378510377
0,93	28,083028083028
0,9305	18,3150183150183
0,931	18,3150183150183
0,9315	8,54700854700852
0,932	-1,22100122100122
0,9325	-10,989010989011
0,933	-10,989010989011
0,9335	-10,989010989011
0,934	-6,10500610500608
0,9345	-10,989010989011
0,935	-10,989010989011
0,9355	-10,989010989011
0,936	-10,989010989011
0,9365	-10,989010989011
0,937	-10,989010989011
0,9375	-6,10500610500608
0,938	-1,22100122100122
0,9385	-1,22100122100122
0,939	-1,22100122100122
0,9395	-10,989010989011
0,94	-10,989010989011
0,9405	-10,989010989011
0,941	-10,989010989011
0,9415	-10,989010989011
0,942	-10,989010989011
0,9425	-1,22100122100122
0,943	8,54700854700852
0,9435	13,4310134310134
0,944	13,4310134310134
0,9445	8,54700854700852
0,945	3,66300366300365
0,9455	3,66300366300365
0,946	-1,22100122100122
0,9465	3,66300366300365
0,947	3,66300366300365
0,9475	-1,22100122100122
0,948	3,66300366300365
0,9485	3,66300366300365
0,949	3,66300366300365
0,9495	8,54700854700852
0,95	3,66300366300365
0,9505	3,66300366300365
0,951	8,54700854700852
0,9515	13,4310134310134
0,952	18,3150183150183
0,9525	18,3150183150183
0,953	18,3150183150183
0,9535	23,1990231990231
0,954	18,3150183150183
0,9545	18,3150183150183
0,955	13,4310134310134
0,9555	8,54700854700852
0,956	-6,10500610500608
0,9565	-10,989010989011
0,957	-15,8730158730158
0,9575	-15,8730158730158
0,958	-10,989010989011
0,9585	-10,989010989011
0,959	-10,989010989011
0,9595	-10,989010989011
0,96	-6,10500610500608
0,9605	3,66300366300365
0,961	8,54700854700852
0,9615	3,66300366300365
0,962	-10,989010989011
0,9625	-15,8730158730158
0,963	-15,8730158730158
0,9635	-10,989010989011
0,964	-1,22100122100122
0,9645	8,54700854700852
0,965	8,54700854700852
0,9655	13,4310134310134
0,966	18,3150183150183
0,9665	8,54700854700852
0,967	3,66300366300365
0,9675	8,54700854700852
0,968	23,1990231990231
0,9685	28,083028083028
0,969	28,083028083028
0,9695	28,083028083028
0,97	28,083028083028
0,9705	37,8510378510377
0,971	47,6190476190475
0,9715	47,6190476190475
0,972	42,7350427350426
0,9725	37,8510378510377
0,973	32,9670329670329
0,9735	23,1990231990231
0,974	8,54700854700852
0,9745	-6,10500610500608
0,975	-10,989010989011
0,9755	-10,989010989011
0,976	-10,989010989011
0,9765	-10,989010989011
0,977	-10,989010989011
0,9775	-15,8730158730158
0,978	-30,5250305250304
0,9785	-52,5030525030523
0,979	-72,0390720390718
0,9795	-72,0390720390718
0,98	-67,1550671550669
0,9805	-62,2710622710621
0,981	-57,3870573870572
0,9815	-45,177045177045
0,982	-20,7570207570207
0,9825	3,66300366300365
0,983	28,083028083028
0,9835	42,7350427350426
0,984	47,6190476190475
0,9845	47,6190476190475
0,985	59,8290598290596
0,9855	64,7130647130645
0,986	79,3650793650791
0,9865	123,321123321123
0,987	174,603174603175
0,9875	189,255189255189
0,988	155,067155067155
0,9885	94,0170940170937
0,989	32,9670329670329
0,9895	-10,989010989011
0,99	-30,5250305250304
0,9905	-45,177045177045
0,991	-52,5030525030523
0,9915	-62,2710622710621
0,992	-62,2710622710621
0,9925	-57,3870573870572
0,993	-57,3870573870572
0,9935	-57,3870573870572
0,994	-52,5030525030523
0,9945	-52,5030525030523
0,995	-52,5030525030523
0,9955	-52,5030525030523
0,996	-52,5030525030523
0,9965	-40,2930402930402
0,997	-20,7570207570207
0,9975	-10,989010989011
0,998	-6,10500610500608
0,9985	-6,10500610500608
0,999	-10,989010989011
0,9995	-10,989010989011
1	-10,989010989011
1,0005	-6,10500610500608
1,001	3,66300366300365
1,0015	23,1990231990231
1,002	47,6190476190475
1,0025	74,4810744810742
1,003	89,1330891330888
1,0035	98,9010989010986
1,004	108,669108669108
1,0045	108,669108669108
1,005	108,669108669108
1,0055	94,0170940170937
1,006	74,4810744810742
1,0065	59,8290598290596
1,007	42,7350427350426
1,0075	23,1990231990231
1,008	8,54700854700852
1,0085	-6,10500610500608
1,009	-20,7570207570207
1,0095	-35,4090354090353
1,01	-45,177045177045
1,0105	-52,5030525030523
1,011	-62,2710622710621
1,0115	-67,1550671550669
1,012	-67,1550671550669
1,0125	-62,2710622710621
1,013	-57,3870573870572
1,0135	-52,5030525030523
1,014	-35,4090354090353
1,0145	-20,7570207570207
1,015	-20,7570207570207
1,0155	-15,8730158730158
1,016	-10,989010989011
1,0165	-6,10500610500608
1,017	3,66300366300365
1,0175	8,54700854700852
1,018	3,66300366300365
1,0185	-10,989010989011
1,019	-15,8730158730158
1,0195	-15,8730158730158
1,02	-10,989010989011
1,0205	3,66300366300365
1,021	3,66300366300365
1,0215	3,66300366300365
1,022	-1,22100122100122
1,0225	-1,22100122100122
1,023	-1,22100122100122
1,0235	3,66300366300365
1,024	13,4310134310134
1,0245	18,3150183150183
1,025	18,3150183150183
1,0255	18,3150183150183
1,026	3,66300366300365
1,0265	3,66300366300365
1,027	3,66300366300365
1,0275	8,54700854700852
1,028	18,3150183150183
1,0285	18,3150183150183
1,029	13,4310134310134
1,0295	8,54700854700852
1,03	13,4310134310134
1,0305	47,6190476190475
1,031	98,9010989010986
1,0315	108,669108669108
1,032	79,3650793650791
1,0325	37,8510378510377
1,033	8,54700854700852
1,0335	-6,10500610500608
1,034	-1,22100122100122
1,0345	3,66300366300365
1,035	13,4310134310134
1,0355	18,3150183150183
1,036	13,4310134310134
1,0365	13,4310134310134
1,037	18,3150183150183
1,0375	8,54700854700852
1,038	-6,10500610500608
1,0385	-15,8730158730158
1,039	-30,5250305250304
1,0395	-30,5250305250304
1,04	-30,5250305250304
1,0405	-30,5250305250304
1,041	-20,7570207570207
1,0415	-20,7570207570207
1,042	-20,7570207570207
1,0425	-20,7570207570207
1,043	-10,989010989011
1,0435	-10,989010989011
1,044	-10,989010989011
1,0445	-10,989010989011
1,045	-10,989010989011
1,0455	-10,989010989011
1,046	-10,989010989011
1,0465	-10,989010989011
1,047	-15,8730158730158
1,0475	-20,7570207570207
1,048	-20,7570207570207
1,0485	-20,7570207570207
1,049	-20,7570207570207
1,0495	-15,8730158730158
1,05	-10,989010989011
1,0505	3,66300366300365
1,051	23,1990231990231
1,0515	47,6190476190475
1,052	59,8290598290596
1,0525	69,5970695970694
1,053	84,249084249084
1,0535	113,553113553113
1,054	147,741147741148
1,0545	155,067155067155
1,055	118,437118437118
1,0555	69,5970695970694
1,056	23,1990231990231
1,0565	-1,22100122100122
1,057	3,66300366300365
1,0575	8,54700854700852
1,058	18,3150183150183
1,0585	8,54700854700852
1,059	-10,989010989011
1,0595	-30,5250305250304
1,06	-52,5030525030523
1,0605	-72,0390720390718
1,061	-81,8070818070815
1,0615	-91,5750915750913
1,062	-81,8070818070815
1,0625	-62,2710622710621
1,063	-45,177045177045
1,0635	-30,5250305250304
1,064	-15,8730158730158
1,0645	3,66300366300365
1,065	28,083028083028
1,0655	37,8510378510377
1,066	37,8510378510377
1,0665	32,9670329670329
1,067	32,9670329670329
1,0675	23,1990231990231
1,068	13,4310134310134
1,0685	8,54700854700852
1,069	13,4310134310134
1,0695	18,3150183150183
1,07	23,1990231990231
1,0705	28,083028083028
1,071	23,1990231990231
1,0715	8,54700854700852
1,072	-6,10500610500608
1,0725	-10,989010989011
1,073	-10,989010989011
1,0735	-1,22100122100122
1,074	8,54700854700852
1,0745	23,1990231990231
1,075	28,083028083028
1,0755	28,083028083028
1,076	13,4310134310134
1,0765	3,66300366300365
1,077	-10,989010989011
1,0775	-15,8730158730158
1,078	-15,8730158730158
1,0785	-20,7570207570207
1,079	-25,6410256410256
1,0795	-20,7570207570207
1,08	-10,989010989011
1,0805	-10,989010989011
1,081	-6,10500610500608
1,0815	-1,22100122100122
1,082	-10,989010989011
1,0825	-15,8730158730158
1,083	-20,7570207570207
1,0835	-20,7570207570207
1,084	-10,989010989011
1,0845	-6,10500610500608
1,085	3,66300366300365
1,0855	13,4310134310134
1,086	23,1990231990231
1,0865	28,083028083028
1,087	23,1990231990231
1,0875	18,3150183150183
1,088	8,54700854700852
1,0885	8,54700854700852
1,089	8,54700854700852
1,0895	13,4310134310134
1,09	23,1990231990231
1,0905	28,083028083028
1,091	28,083028083028
1,0915	37,8510378510377
1,092	37,8510378510377
1,0925	37,8510378510377
1,093	28,083028083028
1,0935	23,1990231990231
1,094	18,3150183150183
1,0945	3,66300366300365
1,095	-10,989010989011
1,0955	-20,7570207570207
1,096	-25,6410256410256
1,0965	-20,7570207570207
1,097	-10,989010989011
1,0975	-6,10500610500608
1,098	-1,22100122100122
1,0985	-1,22100122100122
1,099	3,66300366300365
1,0995	3,66300366300365
1,1	8,54700854700852
1,1005	13,4310134310134
1,101	18,3150183150183
1,1015	23,1990231990231
1,102	23,1990231990231
1,1025	23,1990231990231
1,103	28,083028083028
1,1035	37,8510378510377
1,104	28,083028083028
1,1045	18,3150183150183
1,105	3,66300366300365
1,1055	-6,10500610500608
1,106	-10,989010989011
1,1065	-10,989010989011
1,107	-10,989010989011
1,1075	-15,8730158730158
1,108	-10,989010989011
1,1085	-10,989010989011
1,109	-10,989010989011
1,1095	-10,989010989011
1,11	-10,989010989011
1,1105	-10,989010989011
1,111	-10,989010989011
1,1115	-10,989010989011
1,112	-10,989010989011
1,1125	-20,7570207570207
1,113	-20,7570207570207
1,1135	-10,989010989011
1,114	-6,10500610500608
1,1145	3,66300366300365
1,115	18,3150183150183
1,1155	28,083028083028
1,116	28,083028083028
1,1165	13,4310134310134
1,117	3,66300366300365
1,1175	3,66300366300365
1,118	8,54700854700852
1,1185	13,4310134310134
1,119	18,3150183150183
1,1195	13,4310134310134
1,12	13,4310134310134
1,1205	18,3150183150183
1,121	28,083028083028
1,1215	37,8510378510377
1,122	42,7350427350426
1,1225	37,8510378510377
1,123	28,083028083028
1,1235	23,1990231990231
1,124	13,4310134310134
1,1245	18,3150183150183
1,125	18,3150183150183
1,1255	18,3150183150183
1,126	3,66300366300365
1,1265	-10,989010989011
1,127	-25,6410256410256
1,1275	-30,5250305250304
1,128	-40,2930402930402
1,1285	-40,2930402930402
1,129	-45,177045177045
1,1295	-45,177045177045
1,13	-30,5250305250304
1,1305	-10,989010989011
1,131	-10,989010989011
1,1315	-10,989010989011
1,132	-6,10500610500608
1,1325	-1,22100122100122
1,133	-1,22100122100122
1,1335	-1,22100122100122
1,134	-1,22100122100122
1,1345	8,54700854700852
1,135	32,9670329670329
1,1355	59,8290598290596
1,136	69,5970695970694
1,1365	47,6190476190475
1,137	32,9670329670329
1,1375	18,3150183150183
1,138	3,66300366300365
1,1385	-1,22100122100122
1,139	-10,989010989011
1,1395	-25,6410256410256
1,14	-20,7570207570207
1,1405	-6,10500610500608
1,141	18,3150183150183
1,1415	23,1990231990231
1,142	8,54700854700852
1,1425	-10,989010989011
1,143	-20,7570207570207
1,1435	-15,8730158730158
1,144	-10,989010989011
1,1445	-10,989010989011
1,145	-10,989010989011
1,1455	3,66300366300365
1,146	23,1990231990231
1,1465	42,7350427350426
1,147	64,7130647130645
1,1475	98,9010989010986
1,148	123,321123321123
1,1485	137,973137973138
1,149	108,669108669108
1,1495	74,4810744810742
1,15	47,6190476190475
1,1505	32,9670329670329
1,151	23,1990231990231
1,1515	18,3150183150183
1,152	8,54700854700852
1,1525	-1,22100122100122
1,153	-10,989010989011
1,1535	-10,989010989011
1,154	-10,989010989011
1,1545	3,66300366300365
1,155	37,8510378510377
1,1555	47,6190476190475
1,156	32,9670329670329
1,1565	8,54700854700852
1,157	-10,989010989011
1,1575	-30,5250305250304
1,158	-45,177045177045
1,1585	-57,3870573870572
1,159	-72,0390720390718
1,1595	-72,0390720390718
1,16	-67,1550671550669
1,1605	-67,1550671550669
1,161	-67,1550671550669
1,1615	-72,0390720390718
1,162	-72,0390720390718
1,1625	-67,1550671550669
1,163	-57,3870573870572
1,1635	-40,2930402930402
1,164	-20,7570207570207
1,1645	-10,989010989011
1,165	3,66300366300365
1,1655	13,4310134310134
1,166	8,54700854700852
1,1665	8,54700854700852
1,167	8,54700854700852
1,1675	8,54700854700852
1,168	3,66300366300365
1,1685	3,66300366300365
1,169	3,66300366300365
1,1695	13,4310134310134
1,17	18,3150183150183
1,1705	18,3150183150183
1,171	18,3150183150183
1,1715	18,3150183150183
1,172	8,54700854700852
1,1725	8,54700854700852
1,173	13,4310134310134
1,1735	18,3150183150183
1,174	23,1990231990231
1,1745	32,9670329670329
1,175	37,8510378510377
1,1755	37,8510378510377
1,176	37,8510378510377
1,1765	18,3150183150183
1,177	-1,22100122100122
1,1775	-10,989010989011
1,178	-15,8730158730158
1,1785	-15,8730158730158
1,179	-10,989010989011
1,1795	-6,10500610500608
1,18	-6,10500610500608
1,1805	-6,10500610500608
1,181	3,66300366300365
1,1815	8,54700854700852
1,182	8,54700854700852
1,1825	23,1990231990231
1,183	28,083028083028
1,1835	32,9670329670329
1,184	37,8510378510377
1,1845	37,8510378510377
1,185	47,6190476190475
1,1855	47,6190476190475
1,186	47,6190476190475
1,1865	32,9670329670329
1,187	13,4310134310134
1,1875	-1,22100122100122
1,188	-15,8730158730158
1,1885	-30,5250305250304
1,189	-30,5250305250304
1,1895	-25,6410256410256
1,19	-20,7570207570207
1,1905	-10,989010989011
1,191	-1,22100122100122
1,1915	8,54700854700852
1,192	18,3150183150183
1,1925	18,3150183150183
1,193	18,3150183150183
1,1935	23,1990231990231
1,194	28,083028083028
1,1945	37,8510378510377
1,195	47,6190476190475
1,1955	47,6190476190475
1,196	42,7350427350426
1,1965	23,1990231990231
1,197	8,54700854700852
1,1975	-6,10500610500608
1,198	-10,989010989011
1,1985	-20,7570207570207
1,199	-15,8730158730158
1,1995	-1,22100122100122
1,2	8,54700854700852
1,2005	8,54700854700852
1,201	-6,10500610500608
1,2015	-10,989010989011
1,202	-15,8730158730158
1,2025	-20,7570207570207
1,203	-20,7570207570207
1,2035	-10,989010989011
1,204	-1,22100122100122
1,2045	8,54700854700852
1,205	3,66300366300365
1,2055	-10,989010989011
1,206	-10,989010989011
1,2065	-10,989010989011
1,207	-15,8730158730158
1,2075	-25,6410256410256
1,208	-40,2930402930402
1,2085	-40,2930402930402
1,209	-30,5250305250304
1,2095	-20,7570207570207
1,21	-10,989010989011
1,2105	8,54700854700852
1,211	28,083028083028
1,2115	37,8510378510377
1,212	42,7350427350426
1,2125	37,8510378510377
1,213	32,9670329670329
1,2135	28,083028083028
1,214	28,083028083028
1,2145	28,083028083028
1,215	23,1990231990231
1,2155	18,3150183150183
1,216	18,3150183150183
1,2165	13,4310134310134
1,217	13,4310134310134
1,2175	18,3150183150183
1,218	18,3150183150183
1,2185	8,54700854700852
1,219	-1,22100122100122
1,2195	-6,10500610500608
1,22	-10,989010989011
1,2205	-10,989010989011
1,221	-10,989010989011
1,2215	-15,8730158730158
1,222	-20,7570207570207
1,2225	-25,6410256410256
1,223	-30,5250305250304
1,2235	-35,4090354090353
1,224	-30,5250305250304
1,2245	-30,5250305250304
1,225	-15,8730158730158
1,2255	-10,989010989011
1,226	-10,989010989011
1,2265	-15,8730158730158
1,227	-10,989010989011
1,2275	18,3150183150183
1,228	54,9450549450548
1,2285	54,9450549450548
1,229	23,1990231990231
1,2295	3,66300366300365
1,23	-1,22100122100122
1,2305	8,54700854700852
1,231	32,9670329670329
1,2315	89,1330891330888
1,232	142,857142857143
1,2325	184,371184371185
1,233	164,835164835165
1,2335	123,321123321123
1,234	74,4810744810742
1,2345	37,8510378510377
1,235	8,54700854700852
1,2355	-10,989010989011
1,236	-20,7570207570207
1,2365	-25,6410256410256
1,237	-30,5250305250304
1,2375	-35,4090354090353
1,238	-35,4090354090353
1,2385	-35,4090354090353
1,239	-35,4090354090353
1,2395	-40,2930402930402
1,24	-40,2930402930402
1,2405	-35,4090354090353
1,241	-30,5250305250304
1,2415	-30,5250305250304
1,242	-30,5250305250304
1,2425	-20,7570207570207
1,243	-20,7570207570207
1,2435	-10,989010989011
1,244	-10,989010989011
1,2445	-10,989010989011
1,245	-6,10500610500608
1,2455	3,66300366300365
1,246	8,54700854700852
1,2465	13,4310134310134
1,247	18,3150183150183
1,2475	28,083028083028
1,248	28,083028083028
1,2485	23,1990231990231
1,249	18,3150183150183
1,2495	18,3150183150183
1,25	18,3150183150183
1,2505	8,54700854700852
1,251	3,66300366300365
1,2515	-1,22100122100122
1,252	-1,22100122100122
1,2525	-6,10500610500608
1,253	-15,8730158730158
1,2535	-10,989010989011
1,254	-10,989010989011
1,2545	-6,10500610500608
1,255	-10,989010989011
1,2555	-15,8730158730158
1,256	-25,6410256410256
1,2565	-25,6410256410256
1,257	-20,7570207570207
1,2575	-15,8730158730158
1,258	-10,989010989011
1,2585	-10,989010989011
1,259	-10,989010989011
1,2595	-6,10500610500608
1,26	-1,22100122100122
1,2605	3,66300366300365
1,261	3,66300366300365
1,2615	3,66300366300365
1,262	3,66300366300365
1,2625	8,54700854700852
1,263	18,3150183150183
1,2635	18,3150183150183
1,264	13,4310134310134
1,2645	8,54700854700852
1,265	8,54700854700852
1,2655	-1,22100122100122
1,266	-10,989010989011
1,2665	-6,10500610500608
1,267	-1,22100122100122
1,2675	3,66300366300365
1,268	18,3150183150183
1,2685	23,1990231990231
1,269	37,8510378510377
1,2695	47,6190476190475
1,27	64,7130647130645
1,2705	69,5970695970694
1,271	54,9450549450548
1,2715	32,9670329670329
1,272	23,1990231990231
1,2725	13,4310134310134
1,273	8,54700854700852
1,2735	3,66300366300365
1,274	3,66300366300365
1,2745	18,3150183150183
1,275	32,9670329670329
1,2755	42,7350427350426
1,276	42,7350427350426
1,2765	28,083028083028
1,277	8,54700854700852
1,2775	-1,22100122100122
1,278	-1,22100122100122
1,2785	-1,22100122100122
1,279	8,54700854700852
1,2795	28,083028083028
1,28	54,9450549450548
1,2805	69,5970695970694
1,281	59,8290598290596
1,2815	28,083028083028
1,282	-1,22100122100122
1,2825	-25,6410256410256
1,283	-40,2930402930402
1,2835	-40,2930402930402
1,284	-45,177045177045
1,2845	-52,5030525030523
1,285	-52,5030525030523
1,2855	-35,4090354090353
1,286	-15,8730158730158
1,2865	-6,10500610500608
1,287	23,1990231990231
1,2875	69,5970695970694
1,288	94,0170940170937
1,2885	74,4810744810742
1,289	47,6190476190475
1,2895	23,1990231990231
1,29	-6,10500610500608
1,2905	-15,8730158730158
1,291	-20,7570207570207
1,2915	-20,7570207570207
1,292	-30,5250305250304
1,2925	-30,5250305250304
1,293	-30,5250305250304
1,2935	-35,4090354090353
1,294	-35,4090354090353
1,2945	-30,5250305250304
1,295	-25,6410256410256
1,2955	-20,7570207570207
1,296	-15,8730158730158
1,2965	-15,8730158730158
1,297	-25,6410256410256
1,2975	-30,5250305250304
1,298	-25,6410256410256
1,2985	-20,7570207570207
1,299	-10,989010989011
1,2995	-10,989010989011
1,3	-6,10500610500608
1,3005	-1,22100122100122
1,301	3,66300366300365
1,3015	8,54700854700852
1,302	18,3150183150183
1,3025	23,1990231990231
1,303	23,1990231990231
1,3035	23,1990231990231
1,304	23,1990231990231
1,3045	18,3150183150183
1,305	3,66300366300365
1,3055	-1,22100122100122
1,306	-1,22100122100122
1,3065	-1,22100122100122
1,307	-1,22100122100122
1,3075	-1,22100122100122
1,308	3,66300366300365
1,3085	8,54700854700852
1,309	23,1990231990231
1,3095	37,8510378510377
1,31	42,7350427350426
1,3105	32,9670329670329
1,311	23,1990231990231
1,3115	23,1990231990231
1,312	23,1990231990231
1,3125	28,083028083028
1,313	37,8510378510377
1,3135	42,7350427350426
1,314	42,7350427350426
1,3145	32,9670329670329
1,315	23,1990231990231
1,3155	8,54700854700852
1,316	-10,989010989011
1,3165	-20,7570207570207
1,317	-30,5250305250304
1,3175	-25,6410256410256
1,318	-20,7570207570207
1,3185	-10,989010989011
1,319	-10,989010989011
1,3195	-10,989010989011
1,32	-10,989010989011
1,3205	-10,989010989011
1,321	-10,989010989011
1,3215	3,66300366300365
1,322	13,4310134310134
1,3225	32,9670329670329
1,323	54,9450549450548
1,3235	64,7130647130645
1,324	59,8290598290596
1,3245	37,8510378510377
1,325	18,3150183150183
1,3255	-1,22100122100122
1,326	-10,989010989011
1,3265	-20,7570207570207
1,327	-30,5250305250304
1,3275	-40,2930402930402
1,328	-40,2930402930402
1,3285	-35,4090354090353
1,329	-10,989010989011
1,3295	23,1990231990231
1,33	23,1990231990231
1,3305	13,4310134310134
1,331	3,66300366300365
1,3315	-6,10500610500608
1,332	-6,10500610500608
1,3325	-6,10500610500608
1,333	-6,10500610500608
1,3335	-6,10500610500608
1,334	3,66300366300365
1,3345	8,54700854700852
1,335	18,3150183150183
1,3355	32,9670329670329
1,336	47,6190476190475
1,3365	64,7130647130645
1,337	74,4810744810742
1,3375	74,4810744810742
1,338	59,8290598290596
1,3385	37,8510378510377
1,339	18,3150183150183
1,3395	3,66300366300365
1,34	-10,989010989011
1,3405	-10,989010989011
1,341	-20,7570207570207
1,3415	-15,8730158730158
1,342	-10,989010989011
1,3425	-6,10500610500608
1,343	-1,22100122100122
1,3435	-6,10500610500608
1,344	-1,22100122100122
1,3445	3,66300366300365
1,345	8,54700854700852
1,3455	8,54700854700852
1,346	-1,22100122100122
1,3465	-10,989010989011
1,347	-15,8730158730158
1,3475	-25,6410256410256
1,348	-30,5250305250304
1,3485	-30,5250305250304
1,349	-20,7570207570207
1,3495	-15,8730158730158
1,35	-10,989010989011
1,3505	-10,989010989011
1,351	-10,989010989011
1,3515	-15,8730158730158
1,352	-20,7570207570207
1,3525	-20,7570207570207
1,353	-15,8730158730158
1,3535	-10,989010989011
1,354	-10,989010989011
1,3545	-1,22100122100122
1,355	-6,10500610500608
1,3555	-10,989010989011
1,356	-6,10500610500608
1,3565	3,66300366300365
1,357	18,3150183150183
1,3575	23,1990231990231
1,358	28,083028083028
1,3585	32,9670329670329
1,359	37,8510378510377
1,3595	32,9670329670329
1,36	28,083028083028
1,3605	23,1990231990231
1,361	23,1990231990231
1,3615	42,7350427350426
1,362	59,8290598290596
1,3625	64,7130647130645
1,363	69,5970695970694
1,3635	69,5970695970694
1,364	74,4810744810742
1,3645	64,7130647130645
1,365	37,8510378510377
1,3655	8,54700854700852
1,366	-10,989010989011
1,3665	-20,7570207570207
1,367	-30,5250305250304
1,3675	-35,4090354090353
1,368	-35,4090354090353
1,3685	-30,5250305250304
1,369	-30,5250305250304
1,3695	-25,6410256410256
1,37	-20,7570207570207
1,3705	-20,7570207570207
1,371	-15,8730158730158
1,3715	-10,989010989011
1,372	-1,22100122100122
1,3725	3,66300366300365
1,373	8,54700854700852
1,3735	3,66300366300365
1,374	3,66300366300365
1,3745	3,66300366300365
1,375	3,66300366300365
1,3755	3,66300366300365
1,376	3,66300366300365
1,3765	13,4310134310134
1,377	23,1990231990231
1,3775	28,083028083028
1,378	28,083028083028
1,3785	18,3150183150183
1,379	8,54700854700852
1,3795	-6,10500610500608
1,38	-10,989010989011
1,3805	-15,8730158730158
1,381	-25,6410256410256
1,3815	-30,5250305250304
1,382	-35,4090354090353
1,3825	-35,4090354090353
1,383	-30,5250305250304
1,3835	-30,5250305250304
1,384	-30,5250305250304
1,3845	-35,4090354090353
1,385	-30,5250305250304
1,3855	-20,7570207570207
1,386	-6,10500610500608
1,3865	8,54700854700852
1,387	23,1990231990231
1,3875	32,9670329670329
1,388	42,7350427350426
1,3885	42,7350427350426
1,389	32,9670329670329
1,3895	23,1990231990231
1,39	8,54700854700852
1,3905	-6,10500610500608
1,391	-10,989010989011
1,3915	-6,10500610500608
1,392	-1,22100122100122
1,3925	3,66300366300365
1,393	3,66300366300365
1,3935	8,54700854700852
1,394	18,3150183150183
1,3945	28,083028083028
1,395	64,7130647130645
1,3955	98,9010989010986
1,396	108,669108669108
1,3965	74,4810744810742
1,397	37,8510378510377
1,3975	18,3150183150183
1,398	3,66300366300365
1,3985	3,66300366300365
1,399	3,66300366300365
1,3995	3,66300366300365
1,4	-1,22100122100122
1,4005	-10,989010989011
1,401	-10,989010989011
1,4015	-6,10500610500608
1,402	-6,10500610500608
1,4025	-6,10500610500608
1,403	-1,22100122100122
1,4035	-1,22100122100122
1,404	-6,10500610500608
1,4045	-6,10500610500608
1,405	-10,989010989011
1,4055	-6,10500610500608
1,406	-1,22100122100122
1,4065	-1,22100122100122
1,407	-10,989010989011
1,4075	-10,989010989011
1,408	-10,989010989011
1,4085	-10,989010989011
1,409	-10,989010989011
1,4095	-6,10500610500608
1,41	-1,22100122100122
1,4105	-1,22100122100122
1,411	-6,10500610500608
1,4115	-10,989010989011
1,412	-10,989010989011
1,4125	-10,989010989011
1,413	-10,989010989011
1,4135	-10,989010989011
1,414	-10,989010989011
1,4145	-20,7570207570207
1,415	-20,7570207570207
1,4155	-15,8730158730158
1,416	3,66300366300365
1,4165	28,083028083028
1,417	69,5970695970694
1,4175	89,1330891330888
1,418	84,249084249084
1,4185	64,7130647130645
1,419	28,083028083028
1,4195	3,66300366300365
1,42	-10,989010989011
1,4205	-6,10500610500608
1,421	3,66300366300365
1,4215	18,3150183150183
1,422	13,4310134310134
1,4225	8,54700854700852
1,423	23,1990231990231
1,4235	47,6190476190475
1,424	79,3650793650791
1,4245	89,1330891330888
1,425	69,5970695970694
1,4255	28,083028083028
1,426	-10,989010989011
1,4265	-25,6410256410256
1,427	-30,5250305250304
1,4275	-40,2930402930402
1,428	-45,177045177045
1,4285	-40,2930402930402
1,429	-35,4090354090353
1,4295	-30,5250305250304
1,43	-20,7570207570207
1,4305	-15,8730158730158
1,431	-10,989010989011
1,4315	-10,989010989011
1,432	-6,10500610500608
1,4325	-6,10500610500608
1,433	-1,22100122100122
1,4335	3,66300366300365
1,434	3,66300366300365
1,4345	3,66300366300365
1,435	-1,22100122100122
1,4355	-1,22100122100122
1,436	3,66300366300365
1,4365	8,54700854700852
1,437	13,4310134310134
1,4375	8,54700854700852
1,438	3,66300366300365
1,4385	-1,22100122100122
1,439	-10,989010989011
1,4395	-10,989010989011
1,44	-10,989010989011
1,4405	-10,989010989011
1,441	-10,989010989011
1,4415	-1,22100122100122
1,442	3,66300366300365
1,4425	8,54700854700852
1,443	23,1990231990231
1,4435	37,8510378510377
1,444	59,8290598290596
1,4445	74,4810744810742
1,445	84,249084249084
1,4455	59,8290598290596
1,446	32,9670329670329
1,4465	18,3150183150183
1,447	3,66300366300365
1,4475	-6,10500610500608
1,448	-10,989010989011
1,4485	-20,7570207570207
1,449	-30,5250305250304
1,4495	-30,5250305250304
1,45	-25,6410256410256
1,4505	-20,7570207570207
1,451	-15,8730158730158
1,4515	-15,8730158730158
1,452	-15,8730158730158
1,4525	-20,7570207570207
1,453	-30,5250305250304
1,4535	-35,4090354090353
1,454	-45,177045177045
1,4545	-35,4090354090353
1,455	-15,8730158730158
1,4555	3,66300366300365
1,456	13,4310134310134
1,4565	23,1990231990231
1,457	23,1990231990231
1,4575	18,3150183150183
1,458	8,54700854700852
1,4585	-6,10500610500608
1,459	-6,10500610500608
1,4595	-1,22100122100122
1,46	-1,22100122100122
1,4605	3,66300366300365
1,461	23,1990231990231
1,4615	47,6190476190475
1,462	74,4810744810742
1,4625	108,669108669108
1,463	147,741147741148
1,4635	142,857142857143
1,464	108,669108669108
1,4645	59,8290598290596
1,465	18,3150183150183
1,4655	-10,989010989011
1,466	-30,5250305250304
1,4665	-52,5030525030523
1,467	-57,3870573870572
1,4675	-62,2710622710621
1,468	-57,3870573870572
1,4685	-57,3870573870572
1,469	-62,2710622710621
1,4695	-72,0390720390718
1,47	-86,6910866910864
1,4705	-91,5750915750913
1,471	-76,9230769230767
1,4715	-57,3870573870572
1,472	-52,5030525030523
1,4725	-35,4090354090353
1,473	-15,8730158730158
1,4735	3,66300366300365
1,474	23,1990231990231
1,4745	28,083028083028
1,475	23,1990231990231
1,4755	18,3150183150183
1,476	8,54700854700852
1,4765	13,4310134310134
1,477	28,083028083028
1,4775	54,9450549450548
1,478	74,4810744810742
1,4785	89,1330891330888
1,479	108,669108669108
1,4795	123,321123321123
1,48	118,437118437118
1,4805	103,785103785103
1,481	74,4810744810742
1,4815	47,6190476190475
1,482	28,083028083028
1,4825	8,54700854700852
1,483	3,66300366300365
1,4835	-6,10500610500608
1,484	-10,989010989011
1,4845	-10,989010989011
1,485	-20,7570207570207
1,4855	-20,7570207570207
1,486	-25,6410256410256
1,4865	-20,7570207570207
1,487	-25,6410256410256
1,4875	-20,7570207570207
1,488	-20,7570207570207
1,4885	-25,6410256410256
1,489	-25,6410256410256
1,4895	-20,7570207570207
1,49	-15,8730158730158
1,4905	-10,989010989011
1,491	-15,8730158730158
1,4915	-20,7570207570207
1,492	-15,8730158730158
1,4925	-10,989010989011
1,493	-10,989010989011
1,4935	-6,10500610500608
1,494	-1,22100122100122
1,4945	3,66300366300365
1,495	13,4310134310134
1,4955	32,9670329670329
1,496	64,7130647130645
1,4965	84,249084249084
1,497	69,5970695970694
1,4975	28,083028083028
1,498	3,66300366300365
1,4985	-6,10500610500608
1,499	-10,989010989011
1,4995	-10,989010989011
1,5	-10,989010989011
1,5005	-10,989010989011
1,501	-6,10500610500608
1,5015	8,54700854700852
1,502	23,1990231990231
1,5025	18,3150183150183
1,503	3,66300366300365
1,5035	-6,10500610500608
1,504	-10,989010989011
1,5045	-15,8730158730158
1,505	-15,8730158730158
1,5055	-15,8730158730158
1,506	-10,989010989011
1,5065	-6,10500610500608
1,507	-10,989010989011
1,5075	-6,10500610500608
1,508	3,66300366300365
1,5085	13,4310134310134
1,509	28,083028083028
1,5095	28,083028083028
1,51	23,1990231990231
1,5105	18,3150183150183
1,511	32,9670329670329
1,5115	47,6190476190475
1,512	47,6190476190475
1,5125	42,7350427350426
1,513	23,1990231990231
1,5135	8,54700854700852
1,514	-1,22100122100122
1,5145	-10,989010989011
1,515	-15,8730158730158
1,5155	-20,7570207570207
1,516	-20,7570207570207
1,5165	-25,6410256410256
1,517	-25,6410256410256
1,5175	-25,6410256410256
1,518	-30,5250305250304
1,5185	-25,6410256410256
1,519	-20,7570207570207
1,5195	-15,8730158730158
1,52	-15,8730158730158
1,5205	-10,989010989011
1,521	-10,989010989011
1,5215	3,66300366300365
1,522	18,3150183150183
1,5225	23,1990231990231
1,523	28,083028083028
1,5235	28,083028083028
1,524	32,9670329670329
1,5245	23,1990231990231
1,525	23,1990231990231
1,5255	13,4310134310134
1,526	13,4310134310134
1,5265	18,3150183150183
1,527	23,1990231990231
1,5275	18,3150183150183
1,528	-1,22100122100122
1,5285	-20,7570207570207
1,529	-35,4090354090353
1,5295	-45,177045177045
1,53	-52,5030525030523
1,5305	-52,5030525030523
1,531	-52,5030525030523
1,5315	-35,4090354090353
1,532	-25,6410256410256
1,5325	-20,7570207570207
1,533	-10,989010989011
1,5335	-6,10500610500608
1,534	13,4310134310134
1,5345	37,8510378510377
1,535	74,4810744810742
1,5355	113,553113553113
1,536	137,973137973138
1,5365	118,437118437118
1,537	84,249084249084
1,5375	59,8290598290596
1,538	47,6190476190475
1,5385	47,6190476190475
1,539	47,6190476190475
1,5395	47,6190476190475
1,54	59,8290598290596
1,5405	59,8290598290596
1,541	42,7350427350426
1,5415	18,3150183150183
1,542	-1,22100122100122
1,5425	-10,989010989011
1,543	-10,989010989011
1,5435	-6,10500610500608
1,544	3,66300366300365
1,5445	8,54700854700852
1,545	13,4310134310134
1,5455	8,54700854700852
1,546	-6,10500610500608
1,5465	-20,7570207570207
1,547	-30,5250305250304
1,5475	-30,5250305250304
1,548	-30,5250305250304
1,5485	-45,177045177045
1,549	-52,5030525030523
1,5495	-45,177045177045
1,55	-35,4090354090353
1,5505	-30,5250305250304
1,551	-30,5250305250304
1,5515	-20,7570207570207
1,552	-10,989010989011
1,5525	-10,989010989011
1,553	-20,7570207570207
1,5535	-35,4090354090353
1,554	-45,177045177045
1,5545	-45,177045177045
1,555	-40,2930402930402
1,5555	-45,177045177045
1,556	-45,177045177045
1,5565	-45,177045177045
1,557	-40,2930402930402
1,5575	-30,5250305250304
1,558	-15,8730158730158
1,5585	-6,10500610500608
1,559	18,3150183150183
1,5595	37,8510378510377
1,56	54,9450549450548
1,5605	59,8290598290596
1,561	59,8290598290596
1,5615	64,7130647130645
1,562	69,5970695970694
1,5625	79,3650793650791
1,563	89,1330891330888
1,5635	79,3650793650791
1,564	59,8290598290596
1,5645	37,8510378510377
1,565	18,3150183150183
1,5655	8,54700854700852
1,566	3,66300366300365
1,5665	8,54700854700852
1,567	23,1990231990231
1,5675	28,083028083028
1,568	23,1990231990231
1,5685	18,3150183150183
1,569	8,54700854700852
1,5695	-10,989010989011
1,57	-20,7570207570207
1,5705	-20,7570207570207
1,571	-20,7570207570207
1,5715	-20,7570207570207
1,572	-15,8730158730158
1,5725	-10,989010989011
1,573	-10,989010989011
1,5735	-10,989010989011
1,574	-10,989010989011
1,5745	-1,22100122100122
1,575	3,66300366300365
1,5755	3,66300366300365
1,576	3,66300366300365
1,5765	-1,22100122100122
1,577	-1,22100122100122
1,5775	3,66300366300365
1,578	3,66300366300365
1,5785	13,4310134310134
1,579	18,3150183150183
1,5795	18,3150183150183
1,58	23,1990231990231
1,5805	23,1990231990231
1,581	23,1990231990231
1,5815	23,1990231990231
1,582	13,4310134310134
1,5825	-1,22100122100122
1,583	-10,989010989011
1,5835	-20,7570207570207
1,584	-15,8730158730158
1,5845	-25,6410256410256
1,585	-30,5250305250304
1,5855	-35,4090354090353
1,586	-35,4090354090353
1,5865	-30,5250305250304
1,587	-15,8730158730158
1,5875	-10,989010989011
1,588	-20,7570207570207
1,5885	-25,6410256410256
1,589	-25,6410256410256
1,5895	-15,8730158730158
1,59	-10,989010989011
1,5905	3,66300366300365
1,591	28,083028083028
1,5915	64,7130647130645
1,592	108,669108669108
1,5925	142,857142857143
1,593	133,089133089133
1,5935	94,0170940170937
1,594	64,7130647130645
1,5945	54,9450549450548
1,595	32,9670329670329
1,5955	13,4310134310134
1,596	-1,22100122100122
1,5965	-20,7570207570207
1,597	-30,5250305250304
1,5975	-35,4090354090353
1,598	-35,4090354090353
1,5985	-40,2930402930402
1,599	-35,4090354090353
1,5995	-35,4090354090353
1,6	-30,5250305250304
1,6005	-25,6410256410256
1,601	-20,7570207570207
1,6015	-1,22100122100122
1,602	13,4310134310134
1,6025	28,083028083028
1,603	42,7350427350426
1,6035	47,6190476190475
1,604	42,7350427350426
1,6045	37,8510378510377
1,605	47,6190476190475
1,6055	69,5970695970694
1,606	84,249084249084
1,6065	74,4810744810742
1,607	37,8510378510377
1,6075	3,66300366300365
1,608	-25,6410256410256
1,6085	-45,177045177045
1,609	-57,3870573870572
1,6095	-62,2710622710621
1,61	-57,3870573870572
1,6105	-57,3870573870572
1,611	-62,2710622710621
1,6115	-72,0390720390718
1,612	-72,0390720390718
1,6125	-72,0390720390718
1,613	-62,2710622710621
1,6135	-52,5030525030523
1,614	-45,177045177045
1,6145	-45,177045177045
1,615	-40,2930402930402
1,6155	-30,5250305250304
1,616	-6,10500610500608
1,6165	28,083028083028
1,617	69,5970695970694
1,6175	113,553113553113
1,618	128,205128205129
1,6185	118,437118437118
1,619	89,1330891330888
1,6195	64,7130647130645
1,62	47,6190476190475
1,6205	47,6190476190475
1,621	47,6190476190475
1,6215	42,7350427350426
1,622	32,9670329670329
1,6225	32,9670329670329
1,623	37,8510378510377
1,6235	47,6190476190475
1,624	59,8290598290596
1,6245	47,6190476190475
1,625	18,3150183150183
1,6255	-10,989010989011
1,626	-20,7570207570207
1,6265	-35,4090354090353
1,627	-45,177045177045
1,6275	-52,5030525030523
1,628	-62,2710622710621
1,6285	-67,1550671550669
1,629	-62,2710622710621
1,6295	-40,2930402930402
1,63	-20,7570207570207
1,6305	-15,8730158730158
1,631	-10,989010989011
1,6315	-10,989010989011
1,632	-25,6410256410256
1,6325	-35,4090354090353
1,633	-30,5250305250304
1,6335	-20,7570207570207
1,634	-15,8730158730158
1,6345	-10,989010989011
1,635	3,66300366300365
1,6355	18,3150183150183
1,636	32,9670329670329
1,6365	47,6190476190475
1,637	42,7350427350426
1,6375	32,9670329670329
1,638	23,1990231990231
1,6385	13,4310134310134
1,639	8,54700854700852
1,6395	13,4310134310134
1,64	18,3150183150183
1,6405	28,083028083028
1,641	37,8510378510377
1,6415	42,7350427350426
1,642	32,9670329670329
1,6425	18,3150183150183
1,643	3,66300366300365
1,6435	-6,10500610500608
1,644	-10,989010989011
1,6445	-6,10500610500608
1,645	-6,10500610500608
1,6455	-6,10500610500608
1,646	-6,10500610500608
1,6465	-1,22100122100122
1,647	8,54700854700852
1,6475	8,54700854700852
1,648	18,3150183150183
1,6485	18,3150183150183
1,649	18,3150183150183
1,6495	13,4310134310134
1,65	8,54700854700852
1,6505	8,54700854700852
1,651	8,54700854700852
1,6515	13,4310134310134
1,652	13,4310134310134
1,6525	18,3150183150183
1,653	18,3150183150183
1,6535	18,3150183150183
1,654	13,4310134310134
1,6545	8,54700854700852
1,655	-1,22100122100122
1,6555	-10,989010989011
1,656	-6,10500610500608
1,6565	-6,10500610500608
1,657	-6,10500610500608
1,6575	-1,22100122100122
1,658	-6,10500610500608
1,6585	-6,10500610500608
1,659	-10,989010989011
1,6595	-10,989010989011
1,66	-10,989010989011
1,6605	-10,989010989011
1,661	-10,989010989011
1,6615	-10,989010989011
1,662	-10,989010989011
1,6625	-10,989010989011
1,663	-10,989010989011
1,6635	-10,989010989011
1,664	-10,989010989011
1,6645	-10,989010989011
1,665	-10,989010989011
1,6655	-10,989010989011
1,666	-1,22100122100122
1,6665	3,66300366300365
1,667	8,54700854700852
1,6675	13,4310134310134
1,668	18,3150183150183
1,6685	18,3150183150183
1,669	18,3150183150183
1,6695	18,3150183150183
1,67	23,1990231990231
1,6705	32,9670329670329
1,671	47,6190476190475
1,6715	47,6190476190475
1,672	54,9450549450548
1,6725	47,6190476190475
1,673	28,083028083028
1,6735	13,4310134310134
1,674	-6,10500610500608
1,6745	-10,989010989011
1,675	-20,7570207570207
1,6755	-15,8730158730158
1,676	-6,10500610500608
1,6765	3,66300366300365
1,677	8,54700854700852
1,6775	18,3150183150183
1,678	23,1990231990231
1,6785	18,3150183150183
1,679	3,66300366300365
1,6795	-10,989010989011
1,68	-20,7570207570207
1,6805	-20,7570207570207
1,681	-10,989010989011
1,6815	-10,989010989011
1,682	-10,989010989011
1,6825	-10,989010989011
1,683	-10,989010989011
1,6835	-6,10500610500608
1,684	-6,10500610500608
1,6845	3,66300366300365
1,685	13,4310134310134
1,6855	23,1990231990231
1,686	37,8510378510377
1,6865	54,9450549450548
1,687	64,7130647130645
1,6875	74,4810744810742
1,688	74,4810744810742
1,6885	59,8290598290596
1,689	28,083028083028
1,6895	3,66300366300365
1,69	-10,989010989011
1,6905	-30,5250305250304
1,691	-52,5030525030523
1,6915	-72,0390720390718
1,692	-86,6910866910864
1,6925	-86,6910866910864
1,693	-72,0390720390718
1,6935	-52,5030525030523
1,694	-30,5250305250304
1,6945	-15,8730158730158
1,695	8,54700854700852
1,6955	47,6190476190475
1,696	69,5970695970694
1,6965	47,6190476190475
1,697	28,083028083028
1,6975	13,4310134310134
1,698	13,4310134310134
1,6985	18,3150183150183
1,699	28,083028083028
1,6995	28,083028083028
1,7	28,083028083028
1,7005	28,083028083028
1,701	37,8510378510377
1,7015	59,8290598290596
1,702	74,4810744810742
1,7025	79,3650793650791
1,703	69,5970695970694
1,7035	54,9450549450548
1,704	32,9670329670329
1,7045	8,54700854700852
1,705	-6,10500610500608
1,7055	-10,989010989011
1,706	-15,8730158730158
1,7065	-10,989010989011
1,707	-10,989010989011
1,7075	-15,8730158730158
1,708	-40,2930402930402
1,7085	-52,5030525030523
1,709	-72,0390720390718
1,7095	-91,5750915750913
1,71	-111,111111111111
1,7105	-120,87912087912
1,711	-115,995115995116
1,7115	-101,343101343101
1,712	-81,8070818070815
1,7125	-57,3870573870572
1,713	-20,7570207570207
1,7135	3,66300366300365
1,714	28,083028083028
1,7145	42,7350427350426
1,715	64,7130647130645
1,7155	94,0170940170937
1,716	133,089133089133
1,7165	147,741147741148
1,717	128,205128205129
1,7175	94,0170940170937
1,718	69,5970695970694
1,7185	47,6190476190475
1,719	37,8510378510377
1,7195	23,1990231990231
1,72	3,66300366300365
1,7205	-10,989010989011
1,721	-20,7570207570207
1,7215	-20,7570207570207
1,722	-15,8730158730158
1,7225	-20,7570207570207
1,723	-10,989010989011
1,7235	3,66300366300365
1,724	3,66300366300365
1,7245	3,66300366300365
1,725	3,66300366300365
1,7255	18,3150183150183
1,726	23,1990231990231
1,7265	13,4310134310134
1,727	-6,10500610500608
1,7275	-10,989010989011
1,728	-15,8730158730158
1,7285	-20,7570207570207
1,729	-20,7570207570207
1,7295	-10,989010989011
1,73	-10,989010989011
1,7305	-6,10500610500608
1,731	-10,989010989011
1,7315	-10,989010989011
1,732	-10,989010989011
1,7325	-10,989010989011
1,733	-10,989010989011
1,7335	-10,989010989011
1,734	-10,989010989011
1,7345	-1,22100122100122
1,735	3,66300366300365
1,7355	3,66300366300365
1,736	3,66300366300365
1,7365	3,66300366300365
1,737	8,54700854700852
1,7375	18,3150183150183
1,738	23,1990231990231
1,7385	23,1990231990231
1,739	23,1990231990231
1,7395	18,3150183150183
1,74	3,66300366300365
1,7405	-6,10500610500608
1,741	-6,10500610500608
1,7415	-10,989010989011
1,742	-1,22100122100122
1,7425	3,66300366300365
1,743	8,54700854700852
1,7435	13,4310134310134
1,744	8,54700854700852
1,7445	8,54700854700852
1,745	8,54700854700852
1,7455	13,4310134310134
1,746	28,083028083028
1,7465	23,1990231990231
1,747	13,4310134310134
1,7475	-1,22100122100122
1,748	-10,989010989011
1,7485	-1,22100122100122
1,749	8,54700854700852
1,7495	8,54700854700852
1,75	18,3150183150183
1,7505	23,1990231990231
1,751	28,083028083028
1,7515	42,7350427350426
1,752	59,8290598290596
1,7525	59,8290598290596
1,753	47,6190476190475
1,7535	28,083028083028
1,754	13,4310134310134
1,7545	3,66300366300365
1,755	-6,10500610500608
1,7555	-6,10500610500608
1,756	-1,22100122100122
1,7565	8,54700854700852
1,757	23,1990231990231
1,7575	28,083028083028
1,758	28,083028083028
1,7585	13,4310134310134
1,759	-6,10500610500608
1,7595	-20,7570207570207
1,76	-40,2930402930402
1,7605	-45,177045177045
1,761	-40,2930402930402
1,7615	-40,2930402930402
1,762	-45,177045177045
1,7625	-40,2930402930402
1,763	-30,5250305250304
1,7635	-20,7570207570207
1,764	-10,989010989011
1,7645	-10,989010989011
1,765	-10,989010989011
1,7655	-10,989010989011
1,766	-10,989010989011
1,7665	3,66300366300365
1,767	3,66300366300365
1,7675	8,54700854700852
1,768	8,54700854700852
1,7685	8,54700854700852
1,769	8,54700854700852
1,7695	8,54700854700852
1,77	8,54700854700852
1,7705	8,54700854700852
1,771	8,54700854700852
1,7715	8,54700854700852
1,772	8,54700854700852
1,7725	8,54700854700852
1,773	13,4310134310134
1,7735	13,4310134310134
1,774	8,54700854700852
1,7745	3,66300366300365
1,775	-1,22100122100122
1,7755	-6,10500610500608
1,776	-6,10500610500608
1,7765	-1,22100122100122
1,777	3,66300366300365
1,7775	18,3150183150183
1,778	18,3150183150183
1,7785	18,3150183150183
1,779	3,66300366300365
1,7795	-6,10500610500608
1,78	-10,989010989011
1,7805	-20,7570207570207
1,781	-30,5250305250304
1,7815	-35,4090354090353
1,782	-35,4090354090353
1,7825	-30,5250305250304
1,783	-25,6410256410256
1,7835	-10,989010989011
1,784	-6,10500610500608
1,7845	3,66300366300365
1,785	32,9670329670329
1,7855	108,669108669108
1,786	194,139194139194
1,7865	228,327228327228
1,787	184,371184371185
1,7875	118,437118437118
1,788	59,8290598290596
1,7885	23,1990231990231
1,789	-10,989010989011
1,7895	-30,5250305250304
1,79	-62,2710622710621
1,7905	-72,0390720390718
1,791	-76,9230769230767
1,7915	-72,0390720390718
1,792	-62,2710622710621
1,7925	-40,2930402930402
1,793	-10,989010989011
1,7935	18,3150183150183
1,794	28,083028083028
1,7945	18,3150183150183
1,795	13,4310134310134
1,7955	3,66300366300365
1,796	-1,22100122100122
1,7965	-10,989010989011
1,797	-20,7570207570207
1,7975	-15,8730158730158
1,798	-10,989010989011
1,7985	-10,989010989011
1,799	-10,989010989011
1,7995	-10,989010989011
1,8	-10,989010989011
1,8005	-6,10500610500608
1,801	-1,22100122100122
1,8015	3,66300366300365
1,802	13,4310134310134
1,8025	23,1990231990231
1,803	28,083028083028
1,8035	32,9670329670329
1,804	47,6190476190475
1,8045	47,6190476190475
1,805	59,8290598290596
1,8055	47,6190476190475
1,806	42,7350427350426
1,8065	23,1990231990231
1,807	8,54700854700852
1,8075	-6,10500610500608
1,808	-10,989010989011
1,8085	-10,989010989011
1,809	-10,989010989011
1,8095	-15,8730158730158
1,81	-30,5250305250304
1,8105	-35,4090354090353
1,811	-52,5030525030523
1,8115	-52,5030525030523
1,812	-40,2930402930402
1,8125	-30,5250305250304
1,813	-20,7570207570207
1,8135	-10,989010989011
1,814	-10,989010989011
1,8145	-10,989010989011
1,815	-10,989010989011
1,8155	-10,989010989011
1,816	-10,989010989011
1,8165	-10,989010989011
1,817	-10,989010989011
1,8175	-10,989010989011
1,818	-1,22100122100122
1,8185	-1,22100122100122
1,819	3,66300366300365
1,8195	8,54700854700852
1,82	13,4310134310134
1,8205	8,54700854700852
1,821	13,4310134310134
1,8215	18,3150183150183
1,822	28,083028083028
1,8225	32,9670329670329
1,823	42,7350427350426
1,8235	47,6190476190475
1,824	47,6190476190475
1,8245	47,6190476190475
1,825	47,6190476190475
1,8255	42,7350427350426
1,826	42,7350427350426
1,8265	32,9670329670329
1,827	23,1990231990231
1,8275	13,4310134310134
1,828	8,54700854700852
1,8285	3,66300366300365
1,829	3,66300366300365
1,8295	3,66300366300365
1,83	3,66300366300365
1,8305	-1,22100122100122
1,831	-6,10500610500608
1,8315	-6,10500610500608
1,832	-6,10500610500608
1,8325	-6,10500610500608
1,833	-6,10500610500608
1,8335	-6,10500610500608
1,834	-6,10500610500608
1,8345	-10,989010989011
1,835	-10,989010989011
1,8355	-10,989010989011
1,836	-15,8730158730158
1,8365	-20,7570207570207
1,837	-15,8730158730158
1,8375	-10,989010989011
1,838	-10,989010989011
1,8385	-10,989010989011
1,839	-6,10500610500608
1,8395	-1,22100122100122
1,84	3,66300366300365
1,8405	13,4310134310134
1,841	18,3150183150183
1,8415	18,3150183150183
1,842	3,66300366300365
1,8425	-6,10500610500608
1,843	-6,10500610500608
1,8435	-1,22100122100122
1,844	3,66300366300365
1,8445	8,54700854700852
1,845	18,3150183150183
1,8455	18,3150183150183
1,846	18,3150183150183
1,8465	8,54700854700852
1,847	8,54700854700852
1,8475	3,66300366300365
1,848	3,66300366300365
1,8485	-6,10500610500608
1,849	-10,989010989011
1,8495	-1,22100122100122
1,85	18,3150183150183
1,8505	32,9670329670329
1,851	42,7350427350426
1,8515	42,7350427350426
1,852	42,7350427350426
1,8525	47,6190476190475
1,853	32,9670329670329
1,8535	18,3150183150183
1,854	-6,10500610500608
1,8545	-10,989010989011
1,855	-10,989010989011
1,8555	-6,10500610500608
1,856	3,66300366300365
1,8565	18,3150183150183
1,857	37,8510378510377
1,8575	47,6190476190475
1,858	59,8290598290596
1,8585	47,6190476190475
1,859	28,083028083028
1,8595	8,54700854700852
1,86	-6,10500610500608
1,8605	-10,989010989011
1,861	-20,7570207570207
1,8615	-30,5250305250304
1,862	-25,6410256410256
1,8625	-25,6410256410256
1,863	-25,6410256410256
1,8635	-15,8730158730158
1,864	-10,989010989011
1,8645	-10,989010989011
1,865	-10,989010989011
1,8655	-1,22100122100122
1,866	-1,22100122100122
1,8665	-6,10500610500608
1,867	-6,10500610500608
1,8675	-6,10500610500608
1,868	-10,989010989011
1,8685	-15,8730158730158
1,869	-20,7570207570207
1,8695	-10,989010989011
1,87	-6,10500610500608
1,8705	-1,22100122100122
1,871	3,66300366300365
1,8715	8,54700854700852
1,872	3,66300366300365
1,8725	-6,10500610500608
1,873	-10,989010989011
1,8735	-15,8730158730158
1,874	-15,8730158730158
1,8745	-15,8730158730158
1,875	-10,989010989011
1,8755	-6,10500610500608
1,876	-1,22100122100122
1,8765	3,66300366300365
1,877	3,66300366300365
1,8775	3,66300366300365
1,878	3,66300366300365
1,8785	8,54700854700852
1,879	8,54700854700852
1,8795	13,4310134310134
1,88	23,1990231990231
1,8805	28,083028083028
1,881	42,7350427350426
1,8815	47,6190476190475
1,882	42,7350427350426
1,8825	28,083028083028
1,883	23,1990231990231
1,8835	18,3150183150183
1,884	13,4310134310134
1,8845	8,54700854700852
1,885	8,54700854700852
1,8855	3,66300366300365
1,886	-1,22100122100122
1,8865	-6,10500610500608
1,887	8,54700854700852
1,8875	28,083028083028
1,888	47,6190476190475
1,8885	59,8290598290596
1,889	47,6190476190475
1,8895	23,1990231990231
1,89	3,66300366300365
1,8905	3,66300366300365
1,891	28,083028083028
1,8915	42,7350427350426
1,892	28,083028083028
1,8925	8,54700854700852
1,893	-6,10500610500608
1,8935	-10,989010989011
1,894	-10,989010989011
1,8945	-25,6410256410256
1,895	-40,2930402930402
1,8955	-62,2710622710621
1,896	-67,1550671550669
1,8965	-67,1550671550669
1,897	-62,2710622710621
1,8975	-62,2710622710621
1,898	-62,2710622710621
1,8985	-67,1550671550669
1,899	-62,2710622710621
1,8995	-45,177045177045
1,9	-30,5250305250304
1,9005	-10,989010989011
1,901	13,4310134310134
1,9015	54,9450549450548
1,902	108,669108669108
1,9025	137,973137973138
1,903	137,973137973138
1,9035	108,669108669108
1,904	84,249084249084
1,9045	79,3650793650791
1,905	79,3650793650791
1,9055	74,4810744810742
1,906	69,5970695970694
1,9065	64,7130647130645
1,907	64,7130647130645
1,9075	59,8290598290596
1,908	37,8510378510377
1,9085	8,54700854700852
1,909	-20,7570207570207
1,9095	-52,5030525030523
1,91	-67,1550671550669
1,9105	-76,9230769230767
1,911	-76,9230769230767
1,9115	-72,0390720390718
1,912	-52,5030525030523
1,9125	-15,8730158730158
1,913	3,66300366300365
1,9135	3,66300366300365
1,914	-1,22100122100122
1,9145	-6,10500610500608
1,915	-10,989010989011
1,9155	-15,8730158730158
1,916	-20,7570207570207
1,9165	-20,7570207570207
1,917	-10,989010989011
1,9175	-6,10500610500608
1,918	3,66300366300365
1,9185	-1,22100122100122
1,919	-1,22100122100122
1,9195	-1,22100122100122
1,92	-1,22100122100122
1,9205	-1,22100122100122
1,921	-6,10500610500608
1,9215	-10,989010989011
1,922	-10,989010989011
1,9225	-10,989010989011
1,923	-10,989010989011
1,9235	-15,8730158730158
1,924	-15,8730158730158
1,9245	-20,7570207570207
1,925	-15,8730158730158
1,9255	-10,989010989011
1,926	-10,989010989011
1,9265	-6,10500610500608
1,927	3,66300366300365
1,9275	8,54700854700852
1,928	13,4310134310134
1,9285	13,4310134310134
1,929	18,3150183150183
1,9295	23,1990231990231
1,93	28,083028083028
1,9305	28,083028083028
1,931	32,9670329670329
1,9315	37,8510378510377
1,932	32,9670329670329
1,9325	23,1990231990231
1,933	23,1990231990231
1,9335	23,1990231990231
1,934	23,1990231990231
1,9345	18,3150183150183
1,935	13,4310134310134
1,9355	23,1990231990231
1,936	28,083028083028
1,9365	28,083028083028
1,937	28,083028083028
1,9375	28,083028083028
1,938	28,083028083028
1,9385	18,3150183150183
1,939	8,54700854700852
1,9395	-6,10500610500608
1,94	-10,989010989011
1,9405	-10,989010989011
1,941	-10,989010989011
1,9415	-6,10500610500608
1,942	-6,10500610500608
1,9425	-10,989010989011
1,943	-10,989010989011
1,9435	-10,989010989011
1,944	-20,7570207570207
1,9445	-20,7570207570207
1,945	-20,7570207570207
1,9455	-20,7570207570207
1,946	-15,8730158730158
1,9465	-10,989010989011
1,947	-10,989010989011
1,9475	-10,989010989011
1,948	-6,10500610500608
1,9485	8,54700854700852
1,949	23,1990231990231
1,9495	28,083028083028
1,95	23,1990231990231
1,9505	18,3150183150183
1,951	18,3150183150183
1,9515	23,1990231990231
1,952	23,1990231990231
1,9525	28,083028083028
1,953	37,8510378510377
1,9535	59,8290598290596
1,954	59,8290598290596
1,9545	47,6190476190475
1,955	28,083028083028
1,9555	8,54700854700852
1,956	3,66300366300365
1,9565	-6,10500610500608
1,957	-6,10500610500608
1,9575	-10,989010989011
1,958	-10,989010989011
1,9585	-10,989010989011
1,959	-10,989010989011
1,9595	-6,10500610500608
1,96	-6,10500610500608
1,9605	-10,989010989011
1,961	-10,989010989011
1,9615	-10,989010989011
1,962	-15,8730158730158
1,9625	-10,989010989011
1,963	-15,8730158730158
1,9635	-15,8730158730158
1,964	-10,989010989011
1,9645	-1,22100122100122
1,965	8,54700854700852
1,9655	13,4310134310134
1,966	23,1990231990231
1,9665	23,1990231990231
1,967	23,1990231990231
1,9675	23,1990231990231
1,968	18,3150183150183
1,9685	18,3150183150183
1,969	8,54700854700852
1,9695	3,66300366300365
1,97	3,66300366300365
1,9705	-1,22100122100122
1,971	-1,22100122100122
1,9715	8,54700854700852
1,972	23,1990231990231
1,9725	42,7350427350426
1,973	47,6190476190475
1,9735	32,9670329670329
1,974	8,54700854700852
1,9745	-10,989010989011
1,975	-20,7570207570207
1,9755	-30,5250305250304
1,976	-30,5250305250304
1,9765	-30,5250305250304
1,977	-20,7570207570207
1,9775	-10,989010989011
1,978	-6,10500610500608
1,9785	-1,22100122100122
1,979	-6,10500610500608
1,9795	-10,989010989011
1,98	-10,989010989011
1,9805	-10,989010989011
1,981	-10,989010989011
1,9815	3,66300366300365
1,982	23,1990231990231
1,9825	37,8510378510377
1,983	47,6190476190475
1,9835	47,6190476190475
1,984	47,6190476190475
1,9845	37,8510378510377
1,985	28,083028083028
1,9855	18,3150183150183
1,986	3,66300366300365
1,9865	-6,10500610500608
1,987	-10,989010989011
1,9875	-25,6410256410256
1,988	-40,2930402930402
1,9885	-45,177045177045
1,989	-45,177045177045
1,9895	-45,177045177045
1,99	-45,177045177045
1,9905	-35,4090354090353
1,991	-20,7570207570207
1,9915	-6,10500610500608
1,992	-1,22100122100122
1,9925	3,66300366300365
1,993	3,66300366300365
1,9935	8,54700854700852
1,994	18,3150183150183
1,9945	23,1990231990231
1,995	28,083028083028
1,9955	32,9670329670329
1,996	37,8510378510377
1,9965	47,6190476190475
1,997	54,9450549450548
1,9975	54,9450549450548
1,998	47,6190476190475
1,9985	42,7350427350426
1,999	59,8290598290596
1,9995	89,1330891330888
2	84,249084249084
2,0005	59,8290598290596
2,001	18,3150183150183
2,0015	-6,10500610500608
2,002	-10,989010989011
2,0025	-10,989010989011
2,003	8,54700854700852
2,0035	37,8510378510377
2,004	42,7350427350426
2,0045	18,3150183150183
2,005	-6,10500610500608
2,0055	-15,8730158730158
2,006	-15,8730158730158
2,0065	-20,7570207570207
2,007	-25,6410256410256
2,0075	-20,7570207570207
2,008	-10,989010989011
2,0085	-6,10500610500608
2,009	-1,22100122100122
2,0095	3,66300366300365
2,01	-10,989010989011
2,0105	-35,4090354090353
2,011	-52,5030525030523
2,0115	-57,3870573870572
2,012	-52,5030525030523
2,0125	-45,177045177045
2,013	-30,5250305250304
2,0135	-20,7570207570207
2,014	-10,989010989011
2,0145	8,54700854700852
2,015	23,1990231990231
2,0155	37,8510378510377
2,016	32,9670329670329
2,0165	23,1990231990231
2,017	18,3150183150183
2,0175	23,1990231990231
2,018	42,7350427350426
2,0185	47,6190476190475
2,019	42,7350427350426
2,0195	37,8510378510377
2,02	32,9670329670329
2,0205	28,083028083028
2,021	23,1990231990231
2,0215	18,3150183150183
2,022	8,54700854700852
2,0225	-1,22100122100122
2,023	-6,10500610500608
2,0235	-10,989010989011
2,024	-25,6410256410256
2,0245	-30,5250305250304
2,025	-35,4090354090353
2,0255	-30,5250305250304
2,026	-20,7570207570207
2,0265	-10,989010989011
2,027	-10,989010989011
2,0275	-20,7570207570207
2,028	-20,7570207570207
2,0285	-20,7570207570207
2,029	-15,8730158730158
2,0295	-10,989010989011
2,03	-6,10500610500608
2,0305	-1,22100122100122
2,031	-1,22100122100122
2,0315	-1,22100122100122
2,032	3,66300366300365
2,0325	3,66300366300365
2,033	8,54700854700852
2,0335	8,54700854700852
2,034	13,4310134310134
2,0345	23,1990231990231
2,035	28,083028083028
2,0355	28,083028083028
2,036	32,9670329670329
2,0365	23,1990231990231
2,037	18,3150183150183
2,0375	8,54700854700852
2,038	3,66300366300365
2,0385	-6,10500610500608
2,039	-10,989010989011
2,0395	-10,989010989011
2,04	-10,989010989011
2,0405	-6,10500610500608
2,041	-6,10500610500608
2,0415	-1,22100122100122
2,042	3,66300366300365
2,0425	3,66300366300365
2,043	8,54700854700852
2,0435	18,3150183150183
2,044	18,3150183150183
2,0445	13,4310134310134
2,045	18,3150183150183
2,0455	23,1990231990231
2,046	32,9670329670329
2,0465	32,9670329670329
2,047	23,1990231990231
2,0475	23,1990231990231
2,048	18,3150183150183
2,0485	8,54700854700852
2,049	3,66300366300365
2,0495	13,4310134310134
2,05	23,1990231990231
2,0505	32,9670329670329
2,051	37,8510378510377
2,0515	32,9670329670329
2,052	37,8510378510377
2,0525	32,9670329670329
2,053	28,083028083028
2,0535	28,083028083028
2,054	32,9670329670329
2,0545	32,9670329670329
2,055	18,3150183150183
2,0555	-10,989010989011
2,056	-30,5250305250304
2,0565	-45,177045177045
2,057	-52,5030525030523
2,0575	-52,5030525030523
2,058	-52,5030525030523
2,0585	-40,2930402930402
2,059	-30,5250305250304
2,0595	-30,5250305250304
2,06	-30,5250305250304
2,0605	-25,6410256410256
2,061	-10,989010989011
2,0615	8,54700854700852
2,062	37,8510378510377
2,0625	59,8290598290596
2,063	69,5970695970694
2,0635	74,4810744810742
2,064	69,5970695970694
2,0645	54,9450549450548
2,065	28,083028083028
2,0655	3,66300366300365
2,066	-10,989010989011
2,0665	-20,7570207570207
2,067	-20,7570207570207
2,0675	-15,8730158730158
2,068	-10,989010989011
2,0685	-10,989010989011
2,069	-15,8730158730158
2,0695	-30,5250305250304
2,07	-40,2930402930402
2,0705	-35,4090354090353
2,071	-30,5250305250304
2,0715	-25,6410256410256
2,072	-25,6410256410256
2,0725	-25,6410256410256
2,073	-20,7570207570207
2,0735	-20,7570207570207
2,074	-20,7570207570207
2,0745	-20,7570207570207
2,075	-10,989010989011
2,0755	-6,10500610500608
2,076	8,54700854700852
2,0765	23,1990231990231
2,077	47,6190476190475
2,0775	84,249084249084
2,078	128,205128205129
2,0785	133,089133089133
2,079	108,669108669108
2,0795	64,7130647130645
2,08	32,9670329670329
2,0805	8,54700854700852
2,081	-10,989010989011
2,0815	-20,7570207570207
2,082	-30,5250305250304
2,0825	-35,4090354090353
2,083	-30,5250305250304
2,0835	-15,8730158730158
2,084	-10,989010989011
2,0845	-1,22100122100122
2,085	23,1990231990231
2,0855	59,8290598290596
2,086	59,8290598290596
2,0865	28,083028083028
2,087	3,66300366300365
2,0875	-10,989010989011
2,088	-10,989010989011
2,0885	-10,989010989011
2,089	-10,989010989011
2,0895	-10,989010989011
2,09	-10,989010989011
2,0905	-10,989010989011
2,091	-6,10500610500608
2,0915	-6,10500610500608
2,092	-6,10500610500608
2,0925	-6,10500610500608
2,093	3,66300366300365
2,0935	18,3150183150183
2,094	23,1990231990231
2,0945	23,1990231990231
2,095	23,1990231990231
2,0955	13,4310134310134
2,096	-6,10500610500608
2,0965	-15,8730158730158
2,097	-30,5250305250304
2,0975	-40,2930402930402
2,098	-40,2930402930402
2,0985	-45,177045177045
2,099	-45,177045177045
2,0995	-40,2930402930402
2,1	-30,5250305250304
2,1005	-15,8730158730158
2,101	-10,989010989011
2,1015	-10,989010989011
2,102	-1,22100122100122
2,1025	8,54700854700852
2,103	18,3150183150183
2,1035	28,083028083028
2,104	42,7350427350426
2,1045	54,9450549450548
2,105	69,5970695970694
2,1055	94,0170940170937
2,106	103,785103785103
2,1065	103,785103785103
2,107	89,1330891330888
2,1075	64,7130647130645
2,108	28,083028083028
2,1085	-1,22100122100122
2,109	-20,7570207570207
2,1095	-35,4090354090353
2,11	-35,4090354090353
2,1105	-30,5250305250304
2,111	-30,5250305250304
2,1115	-25,6410256410256
2,112	-20,7570207570207
2,1125	-10,989010989011
2,113	-6,10500610500608
2,1135	-6,10500610500608
2,114	-1,22100122100122
2,1145	3,66300366300365
2,115	8,54700854700852
2,1155	3,66300366300365
2,116	-1,22100122100122
2,1165	-6,10500610500608
2,117	-6,10500610500608
2,1175	-1,22100122100122
2,118	-6,10500610500608
2,1185	-1,22100122100122
2,119	-1,22100122100122
2,1195	-1,22100122100122
2,12	-1,22100122100122
2,1205	3,66300366300365
2,121	3,66300366300365
2,1215	8,54700854700852
2,122	8,54700854700852
2,1225	-1,22100122100122
2,123	-10,989010989011
2,1235	-10,989010989011
2,124	-25,6410256410256
2,1245	-35,4090354090353
2,125	-30,5250305250304
2,1255	-20,7570207570207
2,126	-10,989010989011
2,1265	-6,10500610500608
2,127	-10,989010989011
2,1275	-6,10500610500608
2,128	-6,10500610500608
2,1285	-10,989010989011
2,129	-6,10500610500608
2,1295	8,54700854700852
2,13	37,8510378510377
2,1305	64,7130647130645
2,131	84,249084249084
2,1315	94,0170940170937
2,132	98,9010989010986
2,1325	98,9010989010986
2,133	98,9010989010986
2,1335	89,1330891330888
2,134	74,4810744810742
2,1345	59,8290598290596
2,135	37,8510378510377
2,1355	18,3150183150183
2,136	-6,10500610500608
2,1365	-15,8730158730158
2,137	-30,5250305250304
2,1375	-35,4090354090353
2,138	-35,4090354090353
2,1385	-35,4090354090353
2,139	-30,5250305250304
2,1395	-25,6410256410256
2,14	-20,7570207570207
2,1405	-15,8730158730158
2,141	-10,989010989011
2,1415	-10,989010989011
2,142	-10,989010989011
2,1425	-10,989010989011
2,143	-10,989010989011
2,1435	-10,989010989011
2,144	-6,10500610500608
2,1445	-1,22100122100122
2,145	3,66300366300365
2,1455	-1,22100122100122
2,146	-6,10500610500608
2,1465	-10,989010989011
2,147	-10,989010989011
2,1475	-10,989010989011
2,148	-10,989010989011
2,1485	-6,10500610500608
2,149	3,66300366300365
2,1495	3,66300366300365
2,15	-10,989010989011
2,1505	-20,7570207570207
2,151	-20,7570207570207
2,1515	-20,7570207570207
2,152	-15,8730158730158
2,1525	-15,8730158730158
2,153	-15,8730158730158
2,1535	-20,7570207570207
2,154	-15,8730158730158
2,1545	-20,7570207570207
2,155	-20,7570207570207
2,1555	-20,7570207570207
2,156	-15,8730158730158
2,1565	-10,989010989011
2,157	-15,8730158730158
2,1575	-15,8730158730158
2,158	-10,989010989011
2,1585	3,66300366300365
2,159	18,3150183150183
2,1595	28,083028083028
2,16	28,083028083028
2,1605	28,083028083028
2,161	18,3150183150183
2,1615	18,3150183150183
2,162	32,9670329670329
2,1625	69,5970695970694
2,163	118,437118437118
2,1635	147,741147741148
2,164	137,973137973138
2,1645	108,669108669108
2,165	79,3650793650791
2,1655	59,8290598290596
2,166	47,6190476190475
2,1665	59,8290598290596
2,167	84,249084249084
2,1675	89,1330891330888
2,168	59,8290598290596
2,1685	18,3150183150183
2,169	-10,989010989011
2,1695	-30,5250305250304
2,17	-45,177045177045
2,1705	-67,1550671550669
2,171	-76,9230769230767
2,1715	-76,9230769230767
2,172	-72,0390720390718
2,1725	-67,1550671550669
2,173	-52,5030525030523
2,1735	-40,2930402930402
2,174	-30,5250305250304
2,1745	-25,6410256410256
2,175	-15,8730158730158
2,1755	-10,989010989011
2,176	-1,22100122100122
2,1765	8,54700854700852
2,177	13,4310134310134
2,1775	18,3150183150183
2,178	8,54700854700852
2,1785	3,66300366300365
2,179	-1,22100122100122
2,1795	-1,22100122100122
2,18	-6,10500610500608
2,1805	-6,10500610500608
2,181	-6,10500610500608
2,1815	-1,22100122100122
2,182	-6,10500610500608
2,1825	-6,10500610500608
2,183	-10,989010989011
2,1835	-10,989010989011
2,184	-30,5250305250304
2,1845	-40,2930402930402
2,185	-45,177045177045
2,1855	-45,177045177045
2,186	-40,2930402930402
2,1865	-20,7570207570207
2,187	-10,989010989011
2,1875	-10,989010989011
2,188	-20,7570207570207
2,1885	-20,7570207570207
2,189	-10,989010989011
2,1895	-10,989010989011
2,19	-1,22100122100122
2,1905	18,3150183150183
2,191	42,7350427350426
2,1915	64,7130647130645
2,192	74,4810744810742
2,1925	89,1330891330888
2,193	89,1330891330888
2,1935	89,1330891330888
2,194	98,9010989010986
2,1945	123,321123321123
2,195	137,973137973138
2,1955	123,321123321123
2,196	98,9010989010986
2,1965	74,4810744810742
2,197	54,9450549450548
2,1975	32,9670329670329
2,198	13,4310134310134
2,1985	3,66300366300365
2,199	-10,989010989011
2,1995	-15,8730158730158
2,2	-30,5250305250304
2,2005	-30,5250305250304
2,201	-35,4090354090353
2,2015	-35,4090354090353
2,202	-40,2930402930402
2,2025	-30,5250305250304
2,203	-20,7570207570207
2,2035	-25,6410256410256
2,204	-35,4090354090353
2,2045	-40,2930402930402
2,205	-30,5250305250304
2,2055	-25,6410256410256
2,206	-20,7570207570207
2,2065	-6,10500610500608
2,207	-6,10500610500608
2,2075	-15,8730158730158
2,208	-35,4090354090353
2,2085	-35,4090354090353
2,209	-35,4090354090353
2,2095	-30,5250305250304
2,21	-30,5250305250304
2,2105	-20,7570207570207
2,211	-10,989010989011
2,2115	-10,989010989011
2,212	-10,989010989011
2,2125	-1,22100122100122
2,213	23,1990231990231
2,2135	54,9450549450548
2,214	74,4810744810742
2,2145	74,4810744810742
2,215	47,6190476190475
2,2155	18,3150183150183
2,216	3,66300366300365
2,2165	-1,22100122100122
2,217	-6,10500610500608
2,2175	-10,989010989011
2,218	-20,7570207570207
2,2185	-15,8730158730158
2,219	-10,989010989011
2,2195	-6,10500610500608
2,22	3,66300366300365
2,2205	8,54700854700852
2,221	18,3150183150183
2,2215	13,4310134310134
2,222	3,66300366300365
2,2225	3,66300366300365
2,223	3,66300366300365
2,2235	-6,10500610500608
2,224	-6,10500610500608
2,2245	-10,989010989011
2,225	-10,989010989011
2,2255	-15,8730158730158
2,226	-20,7570207570207
2,2265	-20,7570207570207
2,227	-25,6410256410256
2,2275	-30,5250305250304
2,228	-25,6410256410256
2,2285	-15,8730158730158
2,229	-10,989010989011
2,2295	3,66300366300365
2,23	23,1990231990231
2,2305	59,8290598290596
2,231	113,553113553113
2,2315	169,71916971917
2,232	179,48717948718
2,2325	142,857142857143
2,233	94,0170940170937
2,2335	47,6190476190475
2,234	8,54700854700852
2,2345	-1,22100122100122
2,235	-10,989010989011
2,2355	-15,8730158730158
2,236	-25,6410256410256
2,2365	-20,7570207570207
2,237	-15,8730158730158
2,2375	-20,7570207570207
2,238	-30,5250305250304
2,2385	-35,4090354090353
2,239	-45,177045177045
2,2395	-52,5030525030523
2,24	-52,5030525030523
2,2405	-45,177045177045
2,241	-35,4090354090353
2,2415	-30,5250305250304
2,242	-20,7570207570207
2,2425	-6,10500610500608
2,243	13,4310134310134
2,2435	18,3150183150183
2,244	18,3150183150183
2,2445	18,3150183150183
2,245	13,4310134310134
2,2455	13,4310134310134
2,246	18,3150183150183
2,2465	32,9670329670329
2,247	42,7350427350426
2,2475	32,9670329670329
2,248	18,3150183150183
2,2485	18,3150183150183
2,249	18,3150183150183
2,2495	13,4310134310134
2,25	3,66300366300365
2,2505	-1,22100122100122
2,251	-6,10500610500608
2,2515	-10,989010989011
2,252	-10,989010989011
2,2525	-6,10500610500608
2,253	-15,8730158730158
2,2535	-30,5250305250304
2,254	-52,5030525030523
2,2545	-45,177045177045
2,255	-40,2930402930402
2,2555	-30,5250305250304
2,256	-25,6410256410256
2,2565	-15,8730158730158
2,257	-15,8730158730158
2,2575	-20,7570207570207
2,258	-30,5250305250304
2,2585	-20,7570207570207
2,259	-10,989010989011
2,2595	3,66300366300365
2,26	28,083028083028
2,2605	54,9450549450548
2,261	84,249084249084
2,2615	108,669108669108
2,262	128,205128205129
2,2625	137,973137973138
2,263	123,321123321123
2,2635	89,1330891330888
2,264	47,6190476190475
2,2645	23,1990231990231
2,265	8,54700854700852
2,2655	-1,22100122100122
2,266	-10,989010989011
2,2665	-6,10500610500608
2,267	-1,22100122100122
2,2675	-6,10500610500608
2,268	3,66300366300365
2,2685	8,54700854700852
2,269	8,54700854700852
2,2695	3,66300366300365
2,27	-10,989010989011
2,2705	-20,7570207570207
2,271	-30,5250305250304
2,2715	-25,6410256410256
2,272	-20,7570207570207
2,2725	-10,989010989011
2,273	-10,989010989011
2,2735	-10,989010989011
2,274	-10,989010989011
2,2745	-10,989010989011
2,275	-10,989010989011
2,2755	-6,10500610500608
2,276	-1,22100122100122
2,2765	8,54700854700852
2,277	28,083028083028
2,2775	42,7350427350426
2,278	47,6190476190475
2,2785	32,9670329670329
2,279	18,3150183150183
2,2795	8,54700854700852
2,28	3,66300366300365
2,2805	-6,10500610500608
2,281	-10,989010989011
2,2815	-10,989010989011
2,282	-10,989010989011
2,2825	-10,989010989011
2,283	-10,989010989011
2,2835	-15,8730158730158
2,284	-20,7570207570207
2,2845	-15,8730158730158
2,285	-10,989010989011
2,2855	-6,10500610500608
2,286	-10,989010989011
2,2865	-10,989010989011
2,287	-10,989010989011
2,2875	-6,10500610500608
2,288	-6,10500610500608
2,2885	-6,10500610500608
2,289	-10,989010989011
2,2895	-6,10500610500608
2,29	-6,10500610500608
2,2905	3,66300366300365
2,291	8,54700854700852
2,2915	-1,22100122100122
2,292	-10,989010989011
2,2925	-15,8730158730158
2,293	-10,989010989011
2,2935	-6,10500610500608
2,294	-6,10500610500608
2,2945	-10,989010989011
2,295	-10,989010989011
2,2955	-15,8730158730158
2,296	-10,989010989011
2,2965	-1,22100122100122
2,297	3,66300366300365
2,2975	8,54700854700852
2,298	13,4310134310134
2,2985	23,1990231990231
2,299	28,083028083028
2,2995	32,9670329670329
2,3	37,8510378510377
2,3005	47,6190476190475
2,301	59,8290598290596
2,3015	59,8290598290596
2,302	54,9450549450548
2,3025	47,6190476190475
2,303	42,7350427350426
2,3035	37,8510378510377
2,304	37,8510378510377
2,3045	42,7350427350426
2,305	32,9670329670329
2,3055	8,54700854700852
2,306	-10,989010989011
2,3065	-25,6410256410256
2,307	-30,5250305250304
2,3075	-35,4090354090353
2,308	-30,5250305250304
2,3085	-30,5250305250304
2,309	-30,5250305250304
2,3095	-30,5250305250304
2,31	-30,5250305250304
2,3105	-25,6410256410256
2,311	-20,7570207570207
2,3115	-15,8730158730158
2,312	-10,989010989011
2,3125	-6,10500610500608
2,313	-1,22100122100122
2,3135	8,54700854700852
2,314	8,54700854700852
2,3145	13,4310134310134
2,315	13,4310134310134
2,3155	13,4310134310134
2,316	18,3150183150183
2,3165	18,3150183150183
2,317	18,3150183150183
2,3175	18,3150183150183
2,318	18,3150183150183
2,3185	18,3150183150183
2,319	18,3150183150183
2,3195	8,54700854700852
2,32	8,54700854700852
2,3205	8,54700854700852
2,321	3,66300366300365
2,3215	8,54700854700852
2,322	8,54700854700852
2,3225	8,54700854700852
2,323	3,66300366300365
2,3235	3,66300366300365
2,324	3,66300366300365
2,3245	3,66300366300365
2,325	3,66300366300365
2,3255	3,66300366300365
2,326	-1,22100122100122
2,3265	-10,989010989011
2,327	-10,989010989011
2,3275	3,66300366300365
2,328	23,1990231990231
2,3285	32,9670329670329
2,329	23,1990231990231
2,3295	13,4310134310134
2,33	-10,989010989011
2,3305	-40,2930402930402
2,331	-52,5030525030523
2,3315	-40,2930402930402
2,332	-15,8730158730158
2,3325	-6,10500610500608
2,333	8,54700854700852
2,3335	23,1990231990231
2,334	47,6190476190475
2,3345	89,1330891330888
2,335	137,973137973138
2,3355	169,71916971917
2,336	147,741147741148
2,3365	98,9010989010986
2,337	54,9450549450548
2,3375	28,083028083028
2,338	3,66300366300365
2,3385	-15,8730158730158
2,339	-35,4090354090353
2,3395	-45,177045177045
2,34	-30,5250305250304
2,3405	-10,989010989011
2,341	3,66300366300365
2,3415	3,66300366300365
2,342	-15,8730158730158
2,3425	-35,4090354090353
2,343	-52,5030525030523
2,3435	-52,5030525030523
2,344	-62,2710622710621
2,3445	-62,2710622710621
2,345	-76,9230769230767
2,3455	-86,6910866910864
2,346	-62,2710622710621
2,3465	-15,8730158730158
2,347	23,1990231990231
2,3475	47,6190476190475
2,348	47,6190476190475
2,3485	47,6190476190475
2,349	42,7350427350426
2,3495	54,9450549450548
2,35	74,4810744810742
2,3505	89,1330891330888
2,351	84,249084249084
2,3515	74,4810744810742
2,352	59,8290598290596
2,3525	42,7350427350426
2,353	28,083028083028
2,3535	23,1990231990231
2,354	28,083028083028
2,3545	13,4310134310134
2,355	-10,989010989011
2,3555	-35,4090354090353
2,356	-52,5030525030523
2,3565	-57,3870573870572
2,357	-52,5030525030523
2,3575	-40,2930402930402
2,358	-35,4090354090353
2,3585	-35,4090354090353
2,359	-45,177045177045
2,3595	-52,5030525030523
2,36	-52,5030525030523
2,3605	-52,5030525030523
2,361	-40,2930402930402
2,3615	-30,5250305250304
2,362	-25,6410256410256
2,3625	-20,7570207570207
2,363	-15,8730158730158
2,3635	-15,8730158730158
2,364	-10,989010989011
2,3645	-15,8730158730158
2,365	-15,8730158730158
2,3655	-15,8730158730158
2,366	-20,7570207570207
2,3665	-15,8730158730158
2,367	-15,8730158730158
2,3675	-15,8730158730158
2,368	-10,989010989011
2,3685	8,54700854700852
2,369	28,083028083028
2,3695	42,7350427350426
2,37	47,6190476190475
2,3705	42,7350427350426
2,371	37,8510378510377
2,3715	37,8510378510377
2,372	32,9670329670329
2,3725	32,9670329670329
2,373	28,083028083028
2,3735	23,1990231990231
2,374	23,1990231990231
2,3745	8,54700854700852
2,375	8,54700854700852
2,3755	3,66300366300365
2,376	8,54700854700852
2,3765	8,54700854700852
2,377	3,66300366300365
2,3775	3,66300366300365
2,378	3,66300366300365
2,3785	8,54700854700852
2,379	13,4310134310134
2,3795	18,3150183150183
2,38	13,4310134310134
2,3805	8,54700854700852
2,381	8,54700854700852
2,3815	8,54700854700852
2,382	8,54700854700852
2,3825	8,54700854700852
2,383	8,54700854700852
2,3835	8,54700854700852
2,384	8,54700854700852
2,3845	3,66300366300365
2,385	3,66300366300365
2,3855	8,54700854700852
2,386	18,3150183150183
2,3865	23,1990231990231
2,387	32,9670329670329
2,3875	37,8510378510377
2,388	42,7350427350426
2,3885	42,7350427350426
2,389	32,9670329670329
2,3895	28,083028083028
2,39	28,083028083028
2,3905	32,9670329670329
2,391	42,7350427350426
2,3915	47,6190476190475
2,392	54,9450549450548
2,3925	42,7350427350426
2,393	23,1990231990231
2,3935	-1,22100122100122
2,394	-20,7570207570207
2,3945	-30,5250305250304
2,395	-35,4090354090353
2,3955	-45,177045177045
2,396	-52,5030525030523
2,3965	-52,5030525030523
2,397	-52,5030525030523
2,3975	-35,4090354090353
2,398	-20,7570207570207
2,3985	-10,989010989011
2,399	-1,22100122100122
2,3995	3,66300366300365
2,4	3,66300366300365
2,4005	3,66300366300365
2,401	3,66300366300365
2,4015	-1,22100122100122
2,402	-1,22100122100122
2,4025	-1,22100122100122
2,403	-1,22100122100122
2,4035	-6,10500610500608
2,404	-6,10500610500608
2,4045	-6,10500610500608
2,405	-6,10500610500608
2,4055	-6,10500610500608
2,406	-6,10500610500608
2,4065	3,66300366300365
2,407	8,54700854700852
2,4075	18,3150183150183
2,408	28,083028083028
2,4085	23,1990231990231
2,409	23,1990231990231
2,4095	23,1990231990231
2,41	32,9670329670329
2,4105	42,7350427350426
2,411	37,8510378510377
2,4115	23,1990231990231
2,412	8,54700854700852
2,4125	3,66300366300365
2,413	-1,22100122100122
2,4135	-1,22100122100122
2,414	-1,22100122100122
2,4145	-10,989010989011
2,415	-25,6410256410256
2,4155	-30,5250305250304
2,416	-35,4090354090353
2,4165	-30,5250305250304
2,417	-15,8730158730158
2,4175	8,54700854700852
2,418	47,6190476190475
2,4185	79,3650793650791
2,419	69,5970695970694
2,4195	59,8290598290596
2,42	42,7350427350426
2,4205	23,1990231990231
2,421	3,66300366300365
2,4215	-1,22100122100122
2,422	-1,22100122100122
2,4225	-1,22100122100122
2,423	-1,22100122100122
2,4235	-10,989010989011
2,424	-10,989010989011
2,4245	-20,7570207570207
2,425	-30,5250305250304
2,4255	-40,2930402930402
2,426	-52,5030525030523
2,4265	-67,1550671550669
2,427	-62,2710622710621
2,4275	-45,177045177045
2,428	-30,5250305250304
2,4285	-20,7570207570207
2,429	-10,989010989011
2,4295	-1,22100122100122
2,43	18,3150183150183
2,4305	28,083028083028
2,431	28,083028083028
2,4315	23,1990231990231
2,432	18,3150183150183
2,4325	23,1990231990231
2,433	32,9670329670329
2,4335	54,9450549450548
2,434	89,1330891330888
2,4345	128,205128205129
2,435	133,089133089133
2,4355	108,669108669108
2,436	69,5970695970694
2,4365	32,9670329670329
2,437	3,66300366300365
2,4375	-10,989010989011
2,438	-10,989010989011
2,4385	-10,989010989011
2,439	-6,10500610500608
2,4395	-6,10500610500608
2,44	-10,989010989011
2,4405	-10,989010989011
2,441	-15,8730158730158
2,4415	-20,7570207570207
2,442	-30,5250305250304
2,4425	-40,2930402930402
2,443	-35,4090354090353
2,4435	-30,5250305250304
2,444	-15,8730158730158
2,4445	-1,22100122100122
2,445	8,54700854700852
2,4455	8,54700854700852
2,446	8,54700854700852
2,4465	8,54700854700852
2,447	3,66300366300365
2,4475	-10,989010989011
2,448	-20,7570207570207
2,4485	-30,5250305250304
2,449	-30,5250305250304
2,4495	-25,6410256410256
2,45	-30,5250305250304
2,4505	-40,2930402930402
2,451	-30,5250305250304
2,4515	-10,989010989011
2,452	-10,989010989011
2,4525	-20,7570207570207
2,453	-40,2930402930402
2,4535	-40,2930402930402
2,454	-30,5250305250304
2,4545	-15,8730158730158
2,455	-6,10500610500608
2,4555	8,54700854700852
2,456	18,3150183150183
2,4565	18,3150183150183
2,457	18,3150183150183
2,4575	18,3150183150183
2,458	8,54700854700852
2,4585	3,66300366300365
2,459	-6,10500610500608
2,4595	3,66300366300365
2,46	23,1990231990231
2,4605	42,7350427350426
2,461	59,8290598290596
2,4615	74,4810744810742
2,462	79,3650793650791
2,4625	64,7130647130645
2,463	47,6190476190475
2,4635	42,7350427350426
2,464	32,9670329670329
2,4645	23,1990231990231
2,465	13,4310134310134
2,4655	8,54700854700852
2,466	18,3150183150183
2,4665	37,8510378510377
2,467	59,8290598290596
2,4675	69,5970695970694
2,468	74,4810744810742
2,4685	74,4810744810742
2,469	64,7130647130645
2,4695	47,6190476190475
2,47	18,3150183150183
2,4705	-1,22100122100122
2,471	-15,8730158730158
2,4715	-20,7570207570207
2,472	-30,5250305250304
2,4725	-40,2930402930402
2,473	-52,5030525030523
2,4735	-52,5030525030523
2,474	-52,5030525030523
2,4745	-40,2930402930402
2,475	-35,4090354090353
2,4755	-30,5250305250304
2,476	-30,5250305250304
2,4765	-30,5250305250304
2,477	-15,8730158730158
2,4775	-6,10500610500608
2,478	8,54700854700852
2,4785	13,4310134310134
2,479	18,3150183150183
2,4795	18,3150183150183
2,48	18,3150183150183
2,4805	8,54700854700852
2,481	3,66300366300365
2,4815	3,66300366300365
2,482	-6,10500610500608
2,4825	-10,989010989011
2,483	-10,989010989011
2,4835	-15,8730158730158
2,484	-20,7570207570207
2,4845	-15,8730158730158
2,485	-20,7570207570207
2,4855	-25,6410256410256
2,486	-30,5250305250304
2,4865	-30,5250305250304
2,487	-30,5250305250304
2,4875	-15,8730158730158
2,488	-6,10500610500608
2,4885	8,54700854700852
2,489	23,1990231990231
2,4895	32,9670329670329
2,49	42,7350427350426
2,4905	54,9450549450548
2,491	59,8290598290596
2,4915	47,6190476190475
2,492	32,9670329670329
2,4925	18,3150183150183
2,493	8,54700854700852
2,4935	-6,10500610500608
2,494	-15,8730158730158
2,4945	-25,6410256410256
2,495	-25,6410256410256
2,4955	-15,8730158730158
2,496	-6,10500610500608
2,4965	8,54700854700852
2,497	42,7350427350426
2,4975	84,249084249084
2,498	89,1330891330888
2,4985	74,4810744810742
2,499	64,7130647130645
2,4995	64,7130647130645
2,5	74,4810744810742
2,5005	79,3650793650791
2,501	79,3650793650791
2,5015	64,7130647130645
2,502	37,8510378510377
2,5025	8,54700854700852
2,503	-20,7570207570207
2,5035	-35,4090354090353
2,504	-45,177045177045
2,5045	-52,5030525030523
2,505	-52,5030525030523
2,5055	-57,3870573870572
2,506	-62,2710622710621
2,5065	-67,1550671550669
2,507	-72,0390720390718
2,5075	-76,9230769230767
2,508	-72,0390720390718
2,5085	-62,2710622710621
2,509	-52,5030525030523
2,5095	-45,177045177045
2,51	-30,5250305250304
2,5105	-10,989010989011
2,511	8,54700854700852
2,5115	42,7350427350426
2,512	94,0170940170937
2,5125	137,973137973138
2,513	147,741147741148
2,5135	128,205128205129
2,514	98,9010989010986
2,5145	69,5970695970694
2,515	37,8510378510377
2,5155	13,4310134310134
2,516	-1,22100122100122
2,5165	-6,10500610500608
2,517	-10,989010989011
2,5175	-10,989010989011
2,518	-15,8730158730158
2,5185	-10,989010989011
2,519	-15,8730158730158
2,5195	-20,7570207570207
2,52	-25,6410256410256
2,5205	-35,4090354090353
2,521	-45,177045177045
2,5215	-52,5030525030523
2,522	-45,177045177045
2,5225	-40,2930402930402
2,523	-35,4090354090353
2,5235	-30,5250305250304
2,524	-20,7570207570207
2,5245	-10,989010989011
