AF_EXT
-10,989010989011
-6,10500610500608
-6,10500610500608
-1,22100122100122
-6,10500610500608
-6,10500610500608
-10,989010989011
-6,10500610500608
-6,10500610500608
-6,10500610500608
-1,22100122100122
8,54700854700852
23,1990231990231
23,1990231990231
13,4310134310134
8,54700854700852
3,66300366300365
-1,22100122100122
-6,10500610500608
-6,10500610500608
-1,22100122100122
-1,22100122100122
-1,22100122100122
8,54700854700852
18,3150183150183
8,54700854700852
-6,10500610500608
-15,8730158730158
-20,7570207570207
-15,8730158730158
-20,7570207570207
-20,7570207570207
-20,7570207570207
-20,7570207570207
-10,989010989011
-6,10500610500608
8,54700854700852
32,9670329670329
64,7130647130645
113,553113553113
169,71916971917
155,067155067155
89,1330891330888
37,8510378510377
18,3150183150183
3,66300366300365
-1,22100122100122
-6,10500610500608
-10,989010989011
-10,989010989011
-20,7570207570207
-30,5250305250304
-35,4090354090353
-40,2930402930402
-57,3870573870572
-62,2710622710621
-57,3870573870572
-35,4090354090353
-10,989010989011
3,66300366300365
18,3150183150183
23,1990231990231
23,1990231990231
8,54700854700852
-6,10500610500608
-10,989010989011
-10,989010989011
-10,989010989011
-6,10500610500608
3,66300366300365
8,54700854700852
8,54700854700852
3,66300366300365
13,4310134310134
28,083028083028
32,9670329670329
18,3150183150183
13,4310134310134
13,4310134310134
23,1990231990231
23,1990231990231
28,083028083028
23,1990231990231
3,66300366300365
-15,8730158730158
-10,989010989011
18,3150183150183
13,4310134310134
-1,22100122100122
-6,10500610500608
-6,10500610500608
-6,10500610500608
-1,22100122100122
8,54700854700852
23,1990231990231
42,7350427350426
47,6190476190475
42,7350427350426
23,1990231990231
3,66300366300365
-10,989010989011
-10,989010989011
-10,989010989011
-10,989010989011
-1,22100122100122
3,66300366300365
8,54700854700852
13,4310134310134
13,4310134310134
18,3150183150183
28,083028083028
32,9670329670329
18,3150183150183
-1,22100122100122
-10,989010989011
-20,7570207570207
-40,2930402930402
-52,5030525030523
-30,5250305250304
-10,989010989011
-30,5250305250304
-57,3870573870572
-76,9230769230767
-106,227106227106
-115,995115995116
-101,343101343101
-72,0390720390718
-30,5250305250304
-10,989010989011
8,54700854700852
18,3150183150183
18,3150183150183
23,1990231990231
42,7350427350426
103,785103785103
179,48717948718
223,443223443224
208,791208791209
147,741147741148
94,0170940170937
47,6190476190475
23,1990231990231
13,4310134310134
3,66300366300365
-6,10500610500608
-15,8730158730158
-20,7570207570207
-20,7570207570207
-30,5250305250304
-25,6410256410256
-20,7570207570207
-20,7570207570207
-15,8730158730158
-10,989010989011
-6,10500610500608
-10,989010989011
-20,7570207570207
-30,5250305250304
-30,5250305250304
-20,7570207570207
-10,989010989011
-10,989010989011
-10,989010989011
-10,989010989011
-10,989010989011
-10,989010989011
-6,10500610500608
3,66300366300365
8,54700854700852
13,4310134310134
23,1990231990231
37,8510378510377
47,6190476190475
54,9450549450548
47,6190476190475
37,8510378510377
23,1990231990231
3,66300366300365
-1,22100122100122
-6,10500610500608
-6,10500610500608
-6,10500610500608
-10,989010989011
-10,989010989011
-10,989010989011
-10,989010989011
-10,989010989011
-10,989010989011
-6,10500610500608
-10,989010989011
-30,5250305250304
-57,3870573870572
-67,1550671550669
-52,5030525030523
-35,4090354090353
-20,7570207570207
-1,22100122100122
13,4310134310134
8,54700854700852
-6,10500610500608
-20,7570207570207
-20,7570207570207
8,54700854700852
79,3650793650791
184,371184371185
247,863247863248
218,559218559219
113,553113553113
18,3150183150183
-25,6410256410256
-35,4090354090353
-35,4090354090353
-25,6410256410256
-25,6410256410256
-30,5250305250304
-30,5250305250304
-15,8730158730158
-1,22100122100122
23,1990231990231
28,083028083028
18,3150183150183
3,66300366300365
-6,10500610500608
-15,8730158730158
-25,6410256410256
-30,5250305250304
-52,5030525030523
-62,2710622710621
-72,0390720390718
-91,5750915750913
-101,343101343101
-86,6910866910864
-62,2710622710621
-25,6410256410256
-10,989010989011
8,54700854700852
42,7350427350426
84,249084249084
128,205128205129
174,603174603175
179,48717948718
133,089133089133
84,249084249084
54,9450549450548
47,6190476190475
47,6190476190475
47,6190476190475
37,8510378510377
-10,989010989011
-57,3870573870572
-76,9230769230767
-57,3870573870572
-25,6410256410256
-1,22100122100122
13,4310134310134
-1,22100122100122
-25,6410256410256
-45,177045177045
-52,5030525030523
-45,177045177045
-40,2930402930402
-35,4090354090353
-30,5250305250304
-30,5250305250304
-20,7570207570207
-15,8730158730158
-10,989010989011
-10,989010989011
-10,989010989011
-6,10500610500608
-1,22100122100122
3,66300366300365
8,54700854700852
18,3150183150183
23,1990231990231
23,1990231990231
18,3150183150183
3,66300366300365
-10,989010989011
-20,7570207570207
-15,8730158730158
-1,22100122100122
18,3150183150183
28,083028083028
32,9670329670329
28,083028083028
28,083028083028
23,1990231990231
23,1990231990231
18,3150183150183
18,3150183150183
8,54700854700852
-10,989010989011
-10,989010989011
-10,989010989011
-1,22100122100122
3,66300366300365
8,54700854700852
8,54700854700852
3,66300366300365
3,66300366300365
3,66300366300365
8,54700854700852
13,4310134310134
23,1990231990231
32,9670329670329
32,9670329670329
23,1990231990231
23,1990231990231
23,1990231990231
28,083028083028
28,083028083028
13,4310134310134
-1,22100122100122
-10,989010989011
-20,7570207570207
-30,5250305250304
-30,5250305250304
-30,5250305250304
-35,4090354090353
-40,2930402930402
-45,177045177045
-30,5250305250304
-10,989010989011
18,3150183150183
79,3650793650791
147,741147741148
155,067155067155
108,669108669108
47,6190476190475
3,66300366300365
-15,8730158730158
-25,6410256410256
-30,5250305250304
-30,5250305250304
-30,5250305250304
-45,177045177045
-52,5030525030523
-45,177045177045
-40,2930402930402
-30,5250305250304
-10,989010989011
23,1990231990231
69,5970695970694
94,0170940170937
103,785103785103
74,4810744810742
32,9670329670329
3,66300366300365
-20,7570207570207
-30,5250305250304
-40,2930402930402
-62,2710622710621
-76,9230769230767
-76,9230769230767
-86,6910866910864
-81,8070818070815
-72,0390720390718
-40,2930402930402
23,1990231990231
94,0170940170937
142,857142857143
155,067155067155
137,973137973138
113,553113553113
113,553113553113
137,973137973138
147,741147741148
118,437118437118
69,5970695970694
8,54700854700852
-45,177045177045
-62,2710622710621
-40,2930402930402
-25,6410256410256
-35,4090354090353
-57,3870573870572
-72,0390720390718
-76,9230769230767
-76,9230769230767
-67,1550671550669
-57,3870573870572
-45,177045177045
-35,4090354090353
-15,8730158730158
-10,989010989011
-10,989010989011
-10,989010989011
-10,989010989011
-6,10500610500608
-6,10500610500608
-1,22100122100122
-1,22100122100122
-1,22100122100122
3,66300366300365
3,66300366300365
8,54700854700852
3,66300366300365
8,54700854700852
8,54700854700852
13,4310134310134
13,4310134310134
13,4310134310134
8,54700854700852
-1,22100122100122
-10,989010989011
-10,989010989011
-1,22100122100122
8,54700854700852
18,3150183150183
23,1990231990231
23,1990231990231
23,1990231990231
23,1990231990231
23,1990231990231
28,083028083028
37,8510378510377
37,8510378510377
42,7350427350426
28,083028083028
8,54700854700852
-6,10500610500608
-10,989010989011
-10,989010989011
-20,7570207570207
-30,5250305250304
-52,5030525030523
-72,0390720390718
-81,8070818070815
-72,0390720390718
-45,177045177045
-10,989010989011
23,1990231990231
64,7130647130645
98,9010989010986
118,437118437118
123,321123321123
108,669108669108
79,3650793650791
59,8290598290596
47,6190476190475
42,7350427350426
37,8510378510377
23,1990231990231
3,66300366300365
-10,989010989011
-15,8730158730158
-10,989010989011
-15,8730158730158
-25,6410256410256
-20,7570207570207
-40,2930402930402
-76,9230769230767
-101,343101343101
-101,343101343101
-86,6910866910864
-62,2710622710621
-25,6410256410256
-6,10500610500608
-6,10500610500608
-6,10500610500608
-1,22100122100122
3,66300366300365
23,1990231990231
64,7130647130645
128,205128205129
184,371184371185
155,067155067155
47,6190476190475
-30,5250305250304
-62,2710622710621
-57,3870573870572
-45,177045177045
-25,6410256410256
-10,989010989011
8,54700854700852
18,3150183150183
18,3150183150183
18,3150183150183
23,1990231990231
23,1990231990231
23,1990231990231
23,1990231990231
23,1990231990231
13,4310134310134
3,66300366300365
-6,10500610500608
-15,8730158730158
-25,6410256410256
-20,7570207570207
-10,989010989011
-6,10500610500608
-10,989010989011
-20,7570207570207
-25,6410256410256
-20,7570207570207
-15,8730158730158
-10,989010989011
-10,989010989011
3,66300366300365
13,4310134310134
3,66300366300365
-10,989010989011
-10,989010989011
-6,10500610500608
32,9670329670329
79,3650793650791
94,0170940170937
84,249084249084
42,7350427350426
8,54700854700852
3,66300366300365
18,3150183150183
47,6190476190475
89,1330891330888
103,785103785103
84,249084249084
47,6190476190475
-10,989010989011
-62,2710622710621
-91,5750915750913
-96,4590964590961
-81,8070818070815
-62,2710622710621
-40,2930402930402
-30,5250305250304
-25,6410256410256
-20,7570207570207
-6,10500610500608
23,1990231990231
84,249084249084
155,067155067155
208,791208791209
189,255189255189
108,669108669108
28,083028083028
-35,4090354090353
-86,6910866910864
-111,111111111111
-111,111111111111
-101,343101343101
-81,8070818070815
-57,3870573870572
-40,2930402930402
-30,5250305250304
-15,8730158730158
-10,989010989011
-6,10500610500608
3,66300366300365
8,54700854700852
8,54700854700852
13,4310134310134
3,66300366300365
-10,989010989011
-30,5250305250304
-40,2930402930402
-45,177045177045
-52,5030525030523
-45,177045177045
-30,5250305250304
-20,7570207570207
-10,989010989011
3,66300366300365
18,3150183150183
37,8510378510377
54,9450549450548
59,8290598290596
79,3650793650791
128,205128205129
184,371184371185
233,211233211233
242,979242979243
208,791208791209
133,089133089133
59,8290598290596
3,66300366300365
-25,6410256410256
-52,5030525030523
-72,0390720390718
-76,9230769230767
-62,2710622710621
-45,177045177045
-30,5250305250304
-20,7570207570207
-25,6410256410256
-30,5250305250304
-30,5250305250304
-25,6410256410256
-25,6410256410256
-30,5250305250304
-52,5030525030523
-76,9230769230767
-101,343101343101
-120,87912087912
-130,647130647131
-106,227106227106
-72,0390720390718
-45,177045177045
-30,5250305250304
-15,8730158730158
-10,989010989011
-6,10500610500608
3,66300366300365
13,4310134310134
23,1990231990231
47,6190476190475
84,249084249084
142,857142857143
208,791208791209
203,907203907204
137,973137973138
69,5970695970694
32,9670329670329
18,3150183150183
3,66300366300365
-35,4090354090353
-76,9230769230767
-86,6910866910864
-76,9230769230767
-72,0390720390718
-57,3870573870572
-40,2930402930402
-25,6410256410256
3,66300366300365
32,9670329670329
59,8290598290596
74,4810744810742
98,9010989010986
113,553113553113
103,785103785103
84,249084249084
47,6190476190475
18,3150183150183
-6,10500610500608
-15,8730158730158
-25,6410256410256
-35,4090354090353
-30,5250305250304
-25,6410256410256
-20,7570207570207
-15,8730158730158
-1,22100122100122
8,54700854700852
13,4310134310134
18,3150183150183
18,3150183150183
13,4310134310134
18,3150183150183
28,083028083028
37,8510378510377
37,8510378510377
42,7350427350426
28,083028083028
-30,5250305250304
-96,4590964590961
-135,531135531136
-157,509157509158
-152,625152625153
-125,763125763126
-101,343101343101
-72,0390720390718
-35,4090354090353
-10,989010989011
8,54700854700852
37,8510378510377
69,5970695970694
108,669108669108
155,067155067155
147,741147741148
108,669108669108
64,7130647130645
28,083028083028
18,3150183150183
8,54700854700852
13,4310134310134
18,3150183150183
28,083028083028
42,7350427350426
74,4810744810742
103,785103785103
94,0170940170937
59,8290598290596
23,1990231990231
-10,989010989011
-20,7570207570207
-30,5250305250304
-35,4090354090353
-40,2930402930402
-40,2930402930402
-35,4090354090353
-30,5250305250304
-25,6410256410256
-20,7570207570207
-15,8730158730158
-1,22100122100122
23,1990231990231
28,083028083028
28,083028083028
23,1990231990231
13,4310134310134
-1,22100122100122
-10,989010989011
-15,8730158730158
-40,2930402930402
-72,0390720390718
-91,5750915750913
-86,6910866910864
-62,2710622710621
-40,2930402930402
-15,8730158730158
18,3150183150183
42,7350427350426
47,6190476190475
47,6190476190475
47,6190476190475
54,9450549450548
54,9450549450548
54,9450549450548
37,8510378510377
18,3150183150183
-6,10500610500608
-20,7570207570207
-30,5250305250304
-25,6410256410256
-15,8730158730158
-10,989010989011
-6,10500610500608
-6,10500610500608
-1,22100122100122
3,66300366300365
8,54700854700852
18,3150183150183
23,1990231990231
23,1990231990231
23,1990231990231
23,1990231990231
28,083028083028
28,083028083028
37,8510378510377
59,8290598290596
59,8290598290596
47,6190476190475
37,8510378510377
23,1990231990231
-1,22100122100122
-15,8730158730158
-40,2930402930402
-72,0390720390718
-91,5750915750913
-96,4590964590961
-72,0390720390718
13,4310134310134
123,321123321123
147,741147741148
89,1330891330888
23,1990231990231
-10,989010989011
-30,5250305250304
-45,177045177045
-40,2930402930402
-30,5250305250304
-20,7570207570207
-10,989010989011
3,66300366300365
18,3150183150183
23,1990231990231
32,9670329670329
59,8290598290596
79,3650793650791
89,1330891330888
79,3650793650791
54,9450549450548
23,1990231990231
-6,10500610500608
-10,989010989011
-20,7570207570207
-20,7570207570207
-20,7570207570207
-30,5250305250304
-40,2930402930402
-52,5030525030523
-52,5030525030523
-40,2930402930402
-25,6410256410256
-15,8730158730158
-20,7570207570207
-25,6410256410256
-30,5250305250304
-20,7570207570207
-10,989010989011
-6,10500610500608
-1,22100122100122
-1,22100122100122
-6,10500610500608
-1,22100122100122
8,54700854700852
23,1990231990231
23,1990231990231
23,1990231990231
28,083028083028
37,8510378510377
54,9450549450548
69,5970695970694
89,1330891330888
94,0170940170937
79,3650793650791
47,6190476190475
13,4310134310134
-6,10500610500608
-10,989010989011
-10,989010989011
-10,989010989011
-20,7570207570207
-35,4090354090353
-35,4090354090353
-30,5250305250304
-20,7570207570207
-30,5250305250304
-35,4090354090353
-35,4090354090353
-35,4090354090353
-30,5250305250304
-52,5030525030523
-62,2710622710621
-57,3870573870572
-30,5250305250304
3,66300366300365
42,7350427350426
47,6190476190475
37,8510378510377
3,66300366300365
3,66300366300365
23,1990231990231
37,8510378510377
47,6190476190475
84,249084249084
147,741147741148
189,255189255189
169,71916971917
108,669108669108
47,6190476190475
-10,989010989011
-62,2710622710621
-62,2710622710621
-20,7570207570207
3,66300366300365
8,54700854700852
13,4310134310134
8,54700854700852
3,66300366300365
-10,989010989011
-20,7570207570207
-30,5250305250304
-25,6410256410256
-15,8730158730158
-10,989010989011
-10,989010989011
-15,8730158730158
-15,8730158730158
-20,7570207570207
-20,7570207570207
-20,7570207570207
-15,8730158730158
-10,989010989011
-10,989010989011
-10,989010989011
-10,989010989011
-25,6410256410256
-40,2930402930402
-40,2930402930402
-30,5250305250304
-20,7570207570207
-15,8730158730158
-10,989010989011
-10,989010989011
-6,10500610500608
3,66300366300365
3,66300366300365
18,3150183150183
42,7350427350426
84,249084249084
137,973137973138
164,835164835165
118,437118437118
37,8510378510377
-15,8730158730158
-30,5250305250304
-25,6410256410256
-30,5250305250304
-40,2930402930402
-52,5030525030523
-45,177045177045
-35,4090354090353
-15,8730158730158
18,3150183150183
37,8510378510377
28,083028083028
3,66300366300365
-25,6410256410256
-35,4090354090353
-35,4090354090353
-30,5250305250304
-25,6410256410256
-25,6410256410256
-25,6410256410256
-25,6410256410256
-10,989010989011
13,4310134310134
47,6190476190475
69,5970695970694
74,4810744810742
79,3650793650791
79,3650793650791
69,5970695970694
59,8290598290596
47,6190476190475
28,083028083028
23,1990231990231
23,1990231990231
23,1990231990231
32,9670329670329
32,9670329670329
28,083028083028
23,1990231990231
23,1990231990231
18,3150183150183
8,54700854700852
-1,22100122100122
-20,7570207570207
-52,5030525030523
-96,4590964590961
-120,87912087912
-120,87912087912
-115,995115995116
-101,343101343101
-76,9230769230767
-52,5030525030523
-30,5250305250304
-10,989010989011
-6,10500610500608
-1,22100122100122
3,66300366300365
13,4310134310134
32,9670329670329
37,8510378510377
42,7350427350426
37,8510378510377
37,8510378510377
47,6190476190475
74,4810744810742
108,669108669108
118,437118437118
94,0170940170937
64,7130647130645
42,7350427350426
23,1990231990231
8,54700854700852
-20,7570207570207
-40,2930402930402
-52,5030525030523
-62,2710622710621
-76,9230769230767
-72,0390720390718
-67,1550671550669
-45,177045177045
-30,5250305250304
-15,8730158730158
8,54700854700852
47,6190476190475
89,1330891330888
147,741147741148
194,139194139194
194,139194139194
142,857142857143
79,3650793650791
28,083028083028
-10,989010989011
-30,5250305250304
-40,2930402930402
-40,2930402930402
-45,177045177045
-52,5030525030523
-62,2710622710621
-57,3870573870572
-57,3870573870572
-57,3870573870572
-52,5030525030523
-40,2930402930402
-10,989010989011
3,66300366300365
-1,22100122100122
-6,10500610500608
-1,22100122100122
18,3150183150183
54,9450549450548
84,249084249084
84,249084249084
47,6190476190475
-6,10500610500608
-25,6410256410256
-25,6410256410256
-10,989010989011
18,3150183150183
32,9670329670329
28,083028083028
18,3150183150183
3,66300366300365
-6,10500610500608
-1,22100122100122
3,66300366300365
-1,22100122100122
-10,989010989011
-30,5250305250304
-52,5030525030523
-62,2710622710621
-57,3870573870572
-35,4090354090353
-20,7570207570207
-10,989010989011
-10,989010989011
-15,8730158730158
-10,989010989011
-6,10500610500608
-1,22100122100122
3,66300366300365
18,3150183150183
28,083028083028
47,6190476190475
64,7130647130645
69,5970695970694
74,4810744810742
74,4810744810742
64,7130647130645
42,7350427350426
23,1990231990231
8,54700854700852
-1,22100122100122
-6,10500610500608
-6,10500610500608
-6,10500610500608
3,66300366300365
3,66300366300365
3,66300366300365
3,66300366300365
-1,22100122100122
-1,22100122100122
3,66300366300365
-1,22100122100122
-6,10500610500608
-1,22100122100122
-1,22100122100122
-20,7570207570207
-30,5250305250304
-25,6410256410256
-10,989010989011
-6,10500610500608
3,66300366300365
18,3150183150183
13,4310134310134
-6,10500610500608
-10,989010989011
-10,989010989011
-10,989010989011
-20,7570207570207
-35,4090354090353
-57,3870573870572
-72,0390720390718
-67,1550671550669
-30,5250305250304
-1,22100122100122
23,1990231990231
54,9450549450548
108,669108669108
169,71916971917
174,603174603175
128,205128205129
98,9010989010986
89,1330891330888
74,4810744810742
8,54700854700852
-52,5030525030523
-81,8070818070815
-91,5750915750913
-86,6910866910864
-76,9230769230767
-57,3870573870572
-40,2930402930402
-20,7570207570207
-6,10500610500608
23,1990231990231
47,6190476190475
47,6190476190475
32,9670329670329
18,3150183150183
3,66300366300365
3,66300366300365
3,66300366300365
8,54700854700852
18,3150183150183
23,1990231990231
18,3150183150183
18,3150183150183
18,3150183150183
23,1990231990231
23,1990231990231
18,3150183150183
8,54700854700852
3,66300366300365
-10,989010989011
-30,5250305250304
-52,5030525030523
-62,2710622710621
-67,1550671550669
-62,2710622710621
-52,5030525030523
-35,4090354090353
-20,7570207570207
-20,7570207570207
-25,6410256410256
-20,7570207570207
3,66300366300365
47,6190476190475
103,785103785103
123,321123321123
113,553113553113
103,785103785103
89,1330891330888
69,5970695970694
42,7350427350426
23,1990231990231
18,3150183150183
23,1990231990231
42,7350427350426
47,6190476190475
37,8510378510377
18,3150183150183
3,66300366300365
3,66300366300365
-1,22100122100122
-6,10500610500608
-1,22100122100122
-10,989010989011
-10,989010989011
-10,989010989011
-20,7570207570207
-45,177045177045
-72,0390720390718
-91,5750915750913
-86,6910866910864
-76,9230769230767
-72,0390720390718
-76,9230769230767
-72,0390720390718
-67,1550671550669
-57,3870573870572
-35,4090354090353
-15,8730158730158
8,54700854700852
8,54700854700852
-1,22100122100122
3,66300366300365
3,66300366300365
-6,10500610500608
3,66300366300365
18,3150183150183
32,9670329670329
32,9670329670329
28,083028083028
37,8510378510377
54,9450549450548
69,5970695970694
84,249084249084
84,249084249084
64,7130647130645
59,8290598290596
69,5970695970694
84,249084249084
84,249084249084
64,7130647130645
23,1990231990231
3,66300366300365
-6,10500610500608
-6,10500610500608
-6,10500610500608
-10,989010989011
-20,7570207570207
-20,7570207570207
-10,989010989011
8,54700854700852
23,1990231990231
32,9670329670329
28,083028083028
3,66300366300365
-25,6410256410256
-45,177045177045
-57,3870573870572
-76,9230769230767
-101,343101343101
-111,111111111111
-120,87912087912
-120,87912087912
-115,995115995116
-96,4590964590961
-57,3870573870572
-10,989010989011
47,6190476190475
113,553113553113
208,791208791209
255,189255189255
203,907203907204
108,669108669108
32,9670329670329
-1,22100122100122
-6,10500610500608
-10,989010989011
-25,6410256410256
-30,5250305250304
-10,989010989011
13,4310134310134
23,1990231990231
13,4310134310134
-6,10500610500608
-20,7570207570207
-25,6410256410256
-6,10500610500608
18,3150183150183
18,3150183150183
13,4310134310134
-10,989010989011
-52,5030525030523
-52,5030525030523
-20,7570207570207
18,3150183150183
54,9450549450548
59,8290598290596
42,7350427350426
37,8510378510377
18,3150183150183
-10,989010989011
-30,5250305250304
-20,7570207570207
-10,989010989011
-10,989010989011
8,54700854700852
23,1990231990231
28,083028083028
23,1990231990231
18,3150183150183
3,66300366300365
-10,989010989011
-6,10500610500608
28,083028083028
79,3650793650791
94,0170940170937
89,1330891330888
69,5970695970694
42,7350427350426
18,3150183150183
-6,10500610500608
-20,7570207570207
-30,5250305250304
-30,5250305250304
-25,6410256410256
-20,7570207570207
-30,5250305250304
-30,5250305250304
-35,4090354090353
-40,2930402930402
-52,5030525030523
-45,177045177045
-45,177045177045
-40,2930402930402
-30,5250305250304
-15,8730158730158
-10,989010989011
8,54700854700852
28,083028083028
32,9670329670329
32,9670329670329
23,1990231990231
28,083028083028
28,083028083028
23,1990231990231
18,3150183150183
-1,22100122100122
-30,5250305250304
-67,1550671550669
-81,8070818070815
-76,9230769230767
-62,2710622710621
-40,2930402930402
-30,5250305250304
-20,7570207570207
-10,989010989011
-1,22100122100122
13,4310134310134
23,1990231990231
28,083028083028
32,9670329670329
37,8510378510377
47,6190476190475
59,8290598290596
69,5970695970694
64,7130647130645
59,8290598290596
69,5970695970694
79,3650793650791
74,4810744810742
64,7130647130645
59,8290598290596
42,7350427350426
23,1990231990231
8,54700854700852
-6,10500610500608
-10,989010989011
-15,8730158730158
-25,6410256410256
-30,5250305250304
-25,6410256410256
-10,989010989011
28,083028083028
64,7130647130645
74,4810744810742
64,7130647130645
32,9670329670329
3,66300366300365
-6,10500610500608
-10,989010989011
-10,989010989011
-15,8730158730158
-20,7570207570207
-30,5250305250304
-25,6410256410256
-20,7570207570207
-10,989010989011
-10,989010989011
-10,989010989011
-10,989010989011
-10,989010989011
-10,989010989011
-10,989010989011
-10,989010989011
-10,989010989011
-10,989010989011
-6,10500610500608
-1,22100122100122
8,54700854700852
13,4310134310134
13,4310134310134
18,3150183150183
13,4310134310134
13,4310134310134
23,1990231990231
28,083028083028
18,3150183150183
-1,22100122100122
-15,8730158730158
-20,7570207570207
-25,6410256410256
-20,7570207570207
-25,6410256410256
-30,5250305250304
-45,177045177045
-62,2710622710621
-72,0390720390718
-52,5030525030523
3,66300366300365
54,9450549450548
94,0170940170937
108,669108669108
84,249084249084
37,8510378510377
3,66300366300365
-20,7570207570207
-35,4090354090353
-25,6410256410256
3,66300366300365
64,7130647130645
113,553113553113
113,553113553113
74,4810744810742
18,3150183150183
-15,8730158730158
-52,5030525030523
-81,8070818070815
-96,4590964590961
-111,111111111111
-130,647130647131
-125,763125763126
-76,9230769230767
-15,8730158730158
32,9670329670329
89,1330891330888
147,741147741148
199,023199023199
208,791208791209
159,95115995116
128,205128205129
113,553113553113
84,249084249084
28,083028083028
-10,989010989011
-30,5250305250304
-40,2930402930402
-52,5030525030523
-52,5030525030523
-35,4090354090353
-10,989010989011
8,54700854700852
13,4310134310134
8,54700854700852
8,54700854700852
18,3150183150183
13,4310134310134
-1,22100122100122
-20,7570207570207
-67,1550671550669
-111,111111111111
-130,647130647131
-111,111111111111
-81,8070818070815
-67,1550671550669
-45,177045177045
-15,8730158730158
-1,22100122100122
8,54700854700852
18,3150183150183
18,3150183150183
23,1990231990231
18,3150183150183
8,54700854700852
8,54700854700852
18,3150183150183
23,1990231990231
32,9670329670329
32,9670329670329
32,9670329670329
23,1990231990231
18,3150183150183
8,54700854700852
13,4310134310134
18,3150183150183
18,3150183150183
23,1990231990231
28,083028083028
23,1990231990231
8,54700854700852
-1,22100122100122
-6,10500610500608
-6,10500610500608
-6,10500610500608
-6,10500610500608
-10,989010989011
-10,989010989011
-6,10500610500608
-6,10500610500608
-6,10500610500608
-10,989010989011
-15,8730158730158
-10,989010989011
-1,22100122100122
13,4310134310134
23,1990231990231
37,8510378510377
54,9450549450548
54,9450549450548
47,6190476190475
47,6190476190475
32,9670329670329
28,083028083028
28,083028083028
47,6190476190475
69,5970695970694
84,249084249084
79,3650793650791
54,9450549450548
18,3150183150183
-6,10500610500608
-15,8730158730158
-20,7570207570207
-20,7570207570207
-20,7570207570207
-20,7570207570207
-20,7570207570207
-20,7570207570207
-20,7570207570207
-25,6410256410256
-30,5250305250304
-30,5250305250304
-30,5250305250304
-20,7570207570207
-15,8730158730158
-10,989010989011
-6,10500610500608
-6,10500610500608
-6,10500610500608
-10,989010989011
-10,989010989011
-10,989010989011
-10,989010989011
-6,10500610500608
-1,22100122100122
-6,10500610500608
-6,10500610500608
-10,989010989011
-6,10500610500608
-1,22100122100122
8,54700854700852
8,54700854700852
13,4310134310134
18,3150183150183
18,3150183150183
18,3150183150183
23,1990231990231
23,1990231990231
13,4310134310134
8,54700854700852
3,66300366300365
-6,10500610500608
-20,7570207570207
-30,5250305250304
-35,4090354090353
-30,5250305250304
-35,4090354090353
-35,4090354090353
-30,5250305250304
-20,7570207570207
-25,6410256410256
-45,177045177045
-52,5030525030523
-10,989010989011
69,5970695970694
137,973137973138
147,741147741148
113,553113553113
84,249084249084
84,249084249084
98,9010989010986
98,9010989010986
59,8290598290596
3,66300366300365
-25,6410256410256
-40,2930402930402
-45,177045177045
-40,2930402930402
-45,177045177045
-45,177045177045
-45,177045177045
-45,177045177045
-30,5250305250304
-15,8730158730158
8,54700854700852
59,8290598290596
89,1330891330888
98,9010989010986
84,249084249084
59,8290598290596
28,083028083028
8,54700854700852
-1,22100122100122
-10,989010989011
-20,7570207570207
-25,6410256410256
-20,7570207570207
-10,989010989011
-10,989010989011
-10,989010989011
-10,989010989011
-10,989010989011
-10,989010989011
-10,989010989011
-10,989010989011
-10,989010989011
-10,989010989011
-10,989010989011
-15,8730158730158
-15,8730158730158
-15,8730158730158
-6,10500610500608
23,1990231990231
37,8510378510377
28,083028083028
3,66300366300365
-30,5250305250304
-62,2710622710621
-72,0390720390718
-62,2710622710621
-30,5250305250304
28,083028083028
74,4810744810742
64,7130647130645
28,083028083028
8,54700854700852
8,54700854700852
32,9670329670329
84,249084249084
147,741147741148
189,255189255189
164,835164835165
74,4810744810742
-20,7570207570207
-81,8070818070815
-91,5750915750913
-91,5750915750913
-67,1550671550669
-52,5030525030523
-35,4090354090353
-40,2930402930402
-40,2930402930402
-40,2930402930402
-30,5250305250304
-20,7570207570207
-10,989010989011
-6,10500610500608
3,66300366300365
3,66300366300365
-10,989010989011
-1,22100122100122
8,54700854700852
18,3150183150183
32,9670329670329
47,6190476190475
54,9450549450548
42,7350427350426
42,7350427350426
42,7350427350426
37,8510378510377
32,9670329670329
28,083028083028
23,1990231990231
23,1990231990231
3,66300366300365
-10,989010989011
-15,8730158730158
-25,6410256410256
-20,7570207570207
-20,7570207570207
-15,8730158730158
-6,10500610500608
-1,22100122100122
-6,10500610500608
-6,10500610500608
-1,22100122100122
3,66300366300365
8,54700854700852
3,66300366300365
8,54700854700852
3,66300366300365
3,66300366300365
3,66300366300365
3,66300366300365
3,66300366300365
8,54700854700852
8,54700854700852
-1,22100122100122
-6,10500610500608
3,66300366300365
8,54700854700852
13,4310134310134
23,1990231990231
28,083028083028
18,3150183150183
3,66300366300365
-6,10500610500608
-10,989010989011
-20,7570207570207
-10,989010989011
-1,22100122100122
-6,10500610500608
-6,10500610500608
8,54700854700852
28,083028083028
37,8510378510377
47,6190476190475
54,9450549450548
32,9670329670329
13,4310134310134
3,66300366300365
-6,10500610500608
-10,989010989011
-15,8730158730158
-15,8730158730158
-10,989010989011
-10,989010989011
-25,6410256410256
-40,2930402930402
-30,5250305250304
-10,989010989011
3,66300366300365
13,4310134310134
23,1990231990231
37,8510378510377
37,8510378510377
28,083028083028
18,3150183150183
8,54700854700852
3,66300366300365
3,66300366300365
3,66300366300365
3,66300366300365
3,66300366300365
-1,22100122100122
-1,22100122100122
3,66300366300365
3,66300366300365
3,66300366300365
-1,22100122100122
-6,10500610500608
-10,989010989011
-10,989010989011
-30,5250305250304
-40,2930402930402
-40,2930402930402
-20,7570207570207
-10,989010989011
-1,22100122100122
-6,10500610500608
-6,10500610500608
3,66300366300365
13,4310134310134
28,083028083028
42,7350427350426
59,8290598290596
69,5970695970694
94,0170940170937
118,437118437118
123,321123321123
98,9010989010986
59,8290598290596
13,4310134310134
-10,989010989011
-15,8730158730158
-10,989010989011
-10,989010989011
-1,22100122100122
-1,22100122100122
-10,989010989011
-15,8730158730158
-20,7570207570207
-20,7570207570207
-20,7570207570207
-20,7570207570207
-25,6410256410256
-25,6410256410256
-20,7570207570207
-15,8730158730158
-10,989010989011
-10,989010989011
-10,989010989011
-10,989010989011
-10,989010989011
-10,989010989011
-10,989010989011
-10,989010989011
-15,8730158730158
-20,7570207570207
-20,7570207570207
-10,989010989011
-6,10500610500608
8,54700854700852
13,4310134310134
8,54700854700852
-1,22100122100122
3,66300366300365
3,66300366300365
-6,10500610500608
-15,8730158730158
-25,6410256410256
-30,5250305250304
-40,2930402930402
-40,2930402930402
-40,2930402930402
-40,2930402930402
-15,8730158730158
28,083028083028
108,669108669108
179,48717948718
174,603174603175
128,205128205129
94,0170940170937
94,0170940170937
118,437118437118
142,857142857143
128,205128205129
89,1330891330888
23,1990231990231
-30,5250305250304
-72,0390720390718
-96,4590964590961
-101,343101343101
-81,8070818070815
-52,5030525030523
-25,6410256410256
-30,5250305250304
-52,5030525030523
-62,2710622710621
-72,0390720390718
-81,8070818070815
-81,8070818070815
-76,9230769230767
-76,9230769230767
-67,1550671550669
-40,2930402930402
-10,989010989011
28,083028083028
47,6190476190475
59,8290598290596
98,9010989010986
142,857142857143
128,205128205129
98,9010989010986
59,8290598290596
28,083028083028
-10,989010989011
-40,2930402930402
-40,2930402930402
-10,989010989011
37,8510378510377
108,669108669108
159,95115995116
142,857142857143
98,9010989010986
37,8510378510377
-6,10500610500608
-30,5250305250304
-35,4090354090353
-45,177045177045
-57,3870573870572
-72,0390720390718
-76,9230769230767
-76,9230769230767
-72,0390720390718
-57,3870573870572
-45,177045177045
-35,4090354090353
-30,5250305250304
-20,7570207570207
-1,22100122100122
8,54700854700852
8,54700854700852
8,54700854700852
8,54700854700852
8,54700854700852
-1,22100122100122
-6,10500610500608
-10,989010989011
-15,8730158730158
-20,7570207570207
-25,6410256410256
-10,989010989011
8,54700854700852
42,7350427350426
64,7130647130645
64,7130647130645
47,6190476190475
32,9670329670329
13,4310134310134
3,66300366300365
-1,22100122100122
-1,22100122100122
8,54700854700852
3,66300366300365
-6,10500610500608
-10,989010989011
-10,989010989011
-10,989010989011
-10,989010989011
-10,989010989011
-1,22100122100122
3,66300366300365
8,54700854700852
13,4310134310134
23,1990231990231
37,8510378510377
42,7350427350426
32,9670329670329
32,9670329670329
32,9670329670329
28,083028083028
23,1990231990231
13,4310134310134
8,54700854700852
18,3150183150183
23,1990231990231
-10,989010989011
-40,2930402930402
-52,5030525030523
-62,2710622710621
-81,8070818070815
-86,6910866910864
-81,8070818070815
-72,0390720390718
-67,1550671550669
-45,177045177045
-10,989010989011
18,3150183150183
74,4810744810742
174,603174603175
279,60927960928
333,333333333333
294,261294261294
233,211233211233
199,023199023199
184,371184371185
137,973137973138
28,083028083028
-101,343101343101
-225,885225885226
-291,819291819292
-296,703296703297
-262,515262515262
-216,117216117216
-172,161172161172
-130,647130647131
-101,343101343101
-52,5030525030523
-1,22100122100122
47,6190476190475
89,1330891330888
137,973137973138
164,835164835165
159,95115995116
113,553113553113
64,7130647130645
23,1990231990231
13,4310134310134
23,1990231990231
32,9670329670329
32,9670329670329
32,9670329670329
13,4310134310134
-15,8730158730158
-45,177045177045
-76,9230769230767
-91,5750915750913
-101,343101343101
-111,111111111111
-106,227106227106
-86,6910866910864
-45,177045177045
-10,989010989011
18,3150183150183
32,9670329670329
32,9670329670329
18,3150183150183
23,1990231990231
47,6190476190475
89,1330891330888
137,973137973138
189,255189255189
233,211233211233
213,675213675214
137,973137973138
59,8290598290596
3,66300366300365
-20,7570207570207
-30,5250305250304
-45,177045177045
-52,5030525030523
-52,5030525030523
-45,177045177045
-45,177045177045
-72,0390720390718
-91,5750915750913
-96,4590964590961
-101,343101343101
-91,5750915750913
-76,9230769230767
-67,1550671550669
-57,3870573870572
-45,177045177045
-30,5250305250304
-10,989010989011
18,3150183150183
47,6190476190475
94,0170940170937
137,973137973138
147,741147741148
108,669108669108
64,7130647130645
18,3150183150183
-6,10500610500608
-20,7570207570207
-30,5250305250304
-35,4090354090353
-35,4090354090353
-35,4090354090353
-35,4090354090353
-35,4090354090353
-35,4090354090353
-40,2930402930402
-40,2930402930402
-30,5250305250304
-30,5250305250304
-20,7570207570207
8,54700854700852
42,7350427350426
74,4810744810742
89,1330891330888
89,1330891330888
98,9010989010986
94,0170940170937
84,249084249084
84,249084249084
69,5970695970694
28,083028083028
-30,5250305250304
-67,1550671550669
-76,9230769230767
-81,8070818070815
-72,0390720390718
-62,2710622710621
-81,8070818070815
-125,763125763126
-135,531135531136
-81,8070818070815
-20,7570207570207
28,083028083028
84,249084249084
108,669108669108
98,9010989010986
79,3650793650791
59,8290598290596
42,7350427350426
28,083028083028
8,54700854700852
-20,7570207570207
-40,2930402930402
-52,5030525030523
-62,2710622710621
-72,0390720390718
-62,2710622710621
-45,177045177045
-30,5250305250304
-6,10500610500608
28,083028083028
47,6190476190475
64,7130647130645
74,4810744810742
84,249084249084
84,249084249084
103,785103785103
128,205128205129
155,067155067155
155,067155067155
113,553113553113
64,7130647130645
18,3150183150183
-10,989010989011
-20,7570207570207
-30,5250305250304
-30,5250305250304
-30,5250305250304
-35,4090354090353
-40,2930402930402
-52,5030525030523
-57,3870573870572
-52,5030525030523
-40,2930402930402
-30,5250305250304
-30,5250305250304
-15,8730158730158
23,1990231990231
47,6190476190475
47,6190476190475
42,7350427350426
42,7350427350426
37,8510378510377
23,1990231990231
3,66300366300365
-20,7570207570207
-52,5030525030523
-76,9230769230767
-81,8070818070815
-62,2710622710621
-20,7570207570207
3,66300366300365
13,4310134310134
18,3150183150183
18,3150183150183
-1,22100122100122
-20,7570207570207
-20,7570207570207
13,4310134310134
69,5970695970694
142,857142857143
179,48717948718
155,067155067155
113,553113553113
74,4810744810742
42,7350427350426
-1,22100122100122
-67,1550671550669
-120,87912087912
-135,531135531136
-130,647130647131
-96,4590964590961
-72,0390720390718
-57,3870573870572
-40,2930402930402
-30,5250305250304
-30,5250305250304
-15,8730158730158
-6,10500610500608
32,9670329670329
108,669108669108
155,067155067155
159,95115995116
118,437118437118
59,8290598290596
23,1990231990231
13,4310134310134
8,54700854700852
3,66300366300365
3,66300366300365
-1,22100122100122
-10,989010989011
-20,7570207570207
-20,7570207570207
-20,7570207570207
-15,8730158730158
-10,989010989011
-10,989010989011
-10,989010989011
-10,989010989011
3,66300366300365
23,1990231990231
37,8510378510377
42,7350427350426
32,9670329670329
8,54700854700852
-10,989010989011
-30,5250305250304
-35,4090354090353
-30,5250305250304
-30,5250305250304
-30,5250305250304
-25,6410256410256
-20,7570207570207
-20,7570207570207
-15,8730158730158
-10,989010989011
-6,10500610500608
-6,10500610500608
-6,10500610500608
-6,10500610500608
-1,22100122100122
-1,22100122100122
3,66300366300365
3,66300366300365
3,66300366300365
3,66300366300365
-1,22100122100122
-6,10500610500608
-10,989010989011
-10,989010989011
-1,22100122100122
8,54700854700852
13,4310134310134
3,66300366300365
-1,22100122100122
3,66300366300365
3,66300366300365
8,54700854700852
18,3150183150183
23,1990231990231
28,083028083028
28,083028083028
32,9670329670329
32,9670329670329
28,083028083028
28,083028083028
28,083028083028
18,3150183150183
8,54700854700852
3,66300366300365
3,66300366300365
-1,22100122100122
-6,10500610500608
-10,989010989011
-15,8730158730158
-20,7570207570207
-20,7570207570207
-10,989010989011
-10,989010989011
3,66300366300365
8,54700854700852
8,54700854700852
3,66300366300365
3,66300366300365
8,54700854700852
28,083028083028
64,7130647130645
98,9010989010986
108,669108669108
103,785103785103
79,3650793650791
47,6190476190475
47,6190476190475
54,9450549450548
47,6190476190475
23,1990231990231
-10,989010989011
-40,2930402930402
-45,177045177045
-57,3870573870572
-62,2710622710621
-52,5030525030523
-72,0390720390718
-91,5750915750913
-96,4590964590961
-96,4590964590961
-91,5750915750913
-81,8070818070815
-57,3870573870572
-35,4090354090353
-15,8730158730158
3,66300366300365
8,54700854700852
3,66300366300365
-10,989010989011
8,54700854700852
42,7350427350426
84,249084249084
108,669108669108
123,321123321123
137,973137973138
133,089133089133
89,1330891330888
42,7350427350426
-6,10500610500608
-35,4090354090353
-62,2710622710621
-62,2710622710621
-67,1550671550669
-86,6910866910864
-96,4590964590961
-52,5030525030523
32,9670329670329
113,553113553113
133,089133089133
108,669108669108
69,5970695970694
18,3150183150183
-6,10500610500608
3,66300366300365
3,66300366300365
3,66300366300365
23,1990231990231
47,6190476190475
54,9450549450548
32,9670329670329
-1,22100122100122
-25,6410256410256
-30,5250305250304
-30,5250305250304
-10,989010989011
8,54700854700852
28,083028083028
74,4810744810742
84,249084249084
64,7130647130645
28,083028083028
-6,10500610500608
-35,4090354090353
-62,2710622710621
-81,8070818070815
-111,111111111111
-120,87912087912
-106,227106227106
-86,6910866910864
-76,9230769230767
-62,2710622710621
-20,7570207570207
8,54700854700852
59,8290598290596
123,321123321123
169,71916971917
208,791208791209
242,979242979243
228,327228327228
142,857142857143
37,8510378510377
-45,177045177045
-72,0390720390718
-62,2710622710621
-72,0390720390718
-101,343101343101
-120,87912087912
-125,763125763126
-152,625152625153
-162,393162393163
-140,415140415141
-120,87912087912
-106,227106227106
-91,5750915750913
-86,6910866910864
-91,5750915750913
-91,5750915750913
-67,1550671550669
-25,6410256410256
8,54700854700852
64,7130647130645
123,321123321123
147,741147741148
174,603174603175
218,559218559219
228,327228327228
199,023199023199
142,857142857143
84,249084249084
59,8290598290596
64,7130647130645
108,669108669108
174,603174603175
213,675213675214
164,835164835165
74,4810744810742
3,66300366300365
-40,2930402930402
-57,3870573870572
-57,3870573870572
-45,177045177045
-45,177045177045
-52,5030525030523
-45,177045177045
-30,5250305250304
-15,8730158730158
-20,7570207570207
-35,4090354090353
-57,3870573870572
-72,0390720390718
-81,8070818070815
-81,8070818070815
-72,0390720390718
-57,3870573870572
-45,177045177045
-45,177045177045
-45,177045177045
-45,177045177045
-45,177045177045
-40,2930402930402
-35,4090354090353
-30,5250305250304
-20,7570207570207
-10,989010989011
-10,989010989011
-6,10500610500608
-1,22100122100122
8,54700854700852
23,1990231990231
23,1990231990231
23,1990231990231
18,3150183150183
18,3150183150183
18,3150183150183
13,4310134310134
8,54700854700852
8,54700854700852
8,54700854700852
8,54700854700852
8,54700854700852
13,4310134310134
18,3150183150183
18,3150183150183
18,3150183150183
23,1990231990231
28,083028083028
23,1990231990231
23,1990231990231
18,3150183150183
13,4310134310134
13,4310134310134
13,4310134310134
13,4310134310134
8,54700854700852
8,54700854700852
8,54700854700852
8,54700854700852
8,54700854700852
8,54700854700852
8,54700854700852
8,54700854700852
13,4310134310134
13,4310134310134
8,54700854700852
8,54700854700852
8,54700854700852
8,54700854700852
8,54700854700852
8,54700854700852
3,66300366300365
-10,989010989011
-45,177045177045
-62,2710622710621
-57,3870573870572
-45,177045177045
-35,4090354090353
-20,7570207570207
-6,10500610500608
8,54700854700852
18,3150183150183
37,8510378510377
69,5970695970694
89,1330891330888
108,669108669108
128,205128205129
118,437118437118
84,249084249084
59,8290598290596
32,9670329670329
23,1990231990231
18,3150183150183
3,66300366300365
-15,8730158730158
-25,6410256410256
-20,7570207570207
-1,22100122100122
3,66300366300365
-1,22100122100122
3,66300366300365
8,54700854700852
-10,989010989011
-6,10500610500608
-1,22100122100122
-20,7570207570207
-62,2710622710621
-101,343101343101
-130,647130647131
-125,763125763126
-106,227106227106
-72,0390720390718
-30,5250305250304
-10,989010989011
-10,989010989011
-30,5250305250304
-40,2930402930402
-35,4090354090353
-10,989010989011
13,4310134310134
28,083028083028
32,9670329670329
47,6190476190475
59,8290598290596
59,8290598290596
74,4810744810742
84,249084249084
79,3650793650791
54,9450549450548
42,7350427350426
89,1330891330888
155,067155067155
164,835164835165
113,553113553113
69,5970695970694
42,7350427350426
28,083028083028
13,4310134310134
8,54700854700852
18,3150183150183
37,8510378510377
47,6190476190475
18,3150183150183
-10,989010989011
-30,5250305250304
-52,5030525030523
-62,2710622710621
-62,2710622710621
-62,2710622710621
-62,2710622710621
-57,3870573870572
-52,5030525030523
-52,5030525030523
-57,3870573870572
-62,2710622710621
-57,3870573870572
-45,177045177045
-30,5250305250304
-15,8730158730158
-6,10500610500608
-1,22100122100122
-1,22100122100122
-6,10500610500608
-10,989010989011
-6,10500610500608
8,54700854700852
23,1990231990231
28,083028083028
28,083028083028
28,083028083028
23,1990231990231
18,3150183150183
18,3150183150183
13,4310134310134
8,54700854700852
3,66300366300365
-6,10500610500608
-10,989010989011
-10,989010989011
-6,10500610500608
-1,22100122100122
3,66300366300365
3,66300366300365
-1,22100122100122
-6,10500610500608
3,66300366300365
13,4310134310134
23,1990231990231
23,1990231990231
23,1990231990231
23,1990231990231
18,3150183150183
18,3150183150183
13,4310134310134
8,54700854700852
3,66300366300365
3,66300366300365
8,54700854700852
3,66300366300365
3,66300366300365
18,3150183150183
28,083028083028
32,9670329670329
28,083028083028
28,083028083028
32,9670329670329
42,7350427350426
37,8510378510377
3,66300366300365
-35,4090354090353
-72,0390720390718
-76,9230769230767
-52,5030525030523
-20,7570207570207
-6,10500610500608
-10,989010989011
-10,989010989011
-1,22100122100122
32,9670329670329
37,8510378510377
18,3150183150183
47,6190476190475
98,9010989010986
113,553113553113
98,9010989010986
54,9450549450548
13,4310134310134
-30,5250305250304
-76,9230769230767
-81,8070818070815
-67,1550671550669
-62,2710622710621
-45,177045177045
-10,989010989011
-1,22100122100122
-1,22100122100122
3,66300366300365
18,3150183150183
37,8510378510377
64,7130647130645
79,3650793650791
74,4810744810742
42,7350427350426
3,66300366300365
-10,989010989011
-15,8730158730158
-6,10500610500608
18,3150183150183
28,083028083028
28,083028083028
18,3150183150183
-10,989010989011
-52,5030525030523
-86,6910866910864
-96,4590964590961
-96,4590964590961
-91,5750915750913
-91,5750915750913
-76,9230769230767
-45,177045177045
3,66300366300365
69,5970695970694
108,669108669108
98,9010989010986
74,4810744810742
79,3650793650791
103,785103785103
159,95115995116
208,791208791209
179,48717948718
108,669108669108
47,6190476190475
-15,8730158730158
-57,3870573870572
-62,2710622710621
-57,3870573870572
-52,5030525030523
-52,5030525030523
-35,4090354090353
-25,6410256410256
-10,989010989011
-10,989010989011
-10,989010989011
-6,10500610500608
8,54700854700852
13,4310134310134
3,66300366300365
-6,10500610500608
-10,989010989011
-15,8730158730158
-35,4090354090353
-67,1550671550669
-76,9230769230767
-72,0390720390718
-62,2710622710621
-40,2930402930402
-20,7570207570207
-10,989010989011
-1,22100122100122
3,66300366300365
8,54700854700852
8,54700854700852
8,54700854700852
8,54700854700852
18,3150183150183
23,1990231990231
23,1990231990231
28,083028083028
28,083028083028
23,1990231990231
23,1990231990231
18,3150183150183
18,3150183150183
18,3150183150183
8,54700854700852
-1,22100122100122
-6,10500610500608
-1,22100122100122
8,54700854700852
18,3150183150183
18,3150183150183
18,3150183150183
23,1990231990231
18,3150183150183
-6,10500610500608
-20,7570207570207
-25,6410256410256
-15,8730158730158
-10,989010989011
-6,10500610500608
-10,989010989011
-25,6410256410256
-40,2930402930402
-52,5030525030523
-30,5250305250304
13,4310134310134
79,3650793650791
98,9010989010986
79,3650793650791
32,9670329670329
-10,989010989011
-15,8730158730158
13,4310134310134
59,8290598290596
74,4810744810742
69,5970695970694
59,8290598290596
64,7130647130645
74,4810744810742
108,669108669108
142,857142857143
147,741147741148
89,1330891330888
3,66300366300365
-57,3870573870572
-72,0390720390718
-67,1550671550669
-62,2710622710621
-62,2710622710621
-62,2710622710621
-62,2710622710621
-52,5030525030523
-35,4090354090353
-10,989010989011
18,3150183150183
28,083028083028
13,4310134310134
-10,989010989011
-25,6410256410256
-30,5250305250304
-20,7570207570207
-10,989010989011
-1,22100122100122
-1,22100122100122
-6,10500610500608
-10,989010989011
-10,989010989011
-15,8730158730158
-25,6410256410256
-30,5250305250304
-20,7570207570207
-15,8730158730158
-10,989010989011
-10,989010989011
-6,10500610500608
-6,10500610500608
-1,22100122100122
3,66300366300365
3,66300366300365
3,66300366300365
3,66300366300365
8,54700854700852
8,54700854700852
18,3150183150183
18,3150183150183
18,3150183150183
23,1990231990231
18,3150183150183
13,4310134310134
3,66300366300365
-6,10500610500608
-10,989010989011
-6,10500610500608
3,66300366300365
8,54700854700852
18,3150183150183
23,1990231990231
23,1990231990231
23,1990231990231
28,083028083028
37,8510378510377
64,7130647130645
69,5970695970694
74,4810744810742
69,5970695970694
59,8290598290596
32,9670329670329
23,1990231990231
8,54700854700852
-6,10500610500608
-30,5250305250304
-76,9230769230767
-115,995115995116
-125,763125763126
-111,111111111111
-81,8070818070815
-35,4090354090353
-1,22100122100122
3,66300366300365
-10,989010989011
-20,7570207570207
-30,5250305250304
-25,6410256410256
-10,989010989011
-1,22100122100122
3,66300366300365
3,66300366300365
-1,22100122100122
47,6190476190475
155,067155067155
184,371184371185
133,089133089133
74,4810744810742
37,8510378510377
18,3150183150183
13,4310134310134
-6,10500610500608
-20,7570207570207
-30,5250305250304
-15,8730158730158
3,66300366300365
28,083028083028
47,6190476190475
32,9670329670329
-1,22100122100122
-25,6410256410256
-35,4090354090353
-30,5250305250304
-15,8730158730158
8,54700854700852
23,1990231990231
13,4310134310134
8,54700854700852
-1,22100122100122
8,54700854700852
47,6190476190475
98,9010989010986
113,553113553113
84,249084249084
47,6190476190475
18,3150183150183
-1,22100122100122
-10,989010989011
-15,8730158730158
-20,7570207570207
-25,6410256410256
-45,177045177045
-52,5030525030523
-40,2930402930402
-40,2930402930402
-62,2710622710621
-67,1550671550669
-72,0390720390718
-72,0390720390718
-81,8070818070815
-72,0390720390718
-52,5030525030523
-25,6410256410256
8,54700854700852
69,5970695970694
108,669108669108
98,9010989010986
59,8290598290596
32,9670329670329
32,9670329670329
13,4310134310134
-1,22100122100122
23,1990231990231
47,6190476190475
64,7130647130645
42,7350427350426
23,1990231990231
3,66300366300365
-6,10500610500608
-10,989010989011
-15,8730158730158
-6,10500610500608
37,8510378510377
79,3650793650791
94,0170940170937
64,7130647130645
23,1990231990231
-10,989010989011
-15,8730158730158
-10,989010989011
-10,989010989011
-6,10500610500608
-10,989010989011
-30,5250305250304
-57,3870573870572
-67,1550671550669
-62,2710622710621
-52,5030525030523
-40,2930402930402
-30,5250305250304
-20,7570207570207
-20,7570207570207
-20,7570207570207
-10,989010989011
-15,8730158730158
-20,7570207570207
-10,989010989011
28,083028083028
84,249084249084
94,0170940170937
47,6190476190475
8,54700854700852
-1,22100122100122
-6,10500610500608
-6,10500610500608
-1,22100122100122
3,66300366300365
13,4310134310134
28,083028083028
42,7350427350426
47,6190476190475
37,8510378510377
47,6190476190475
64,7130647130645
59,8290598290596
28,083028083028
-1,22100122100122
-15,8730158730158
-40,2930402930402
-67,1550671550669
-76,9230769230767
-72,0390720390718
-62,2710622710621
-40,2930402930402
-25,6410256410256
-10,989010989011
3,66300366300365
23,1990231990231
37,8510378510377
47,6190476190475
47,6190476190475
42,7350427350426
32,9670329670329
28,083028083028
18,3150183150183
3,66300366300365
-6,10500610500608
-10,989010989011
-20,7570207570207
-30,5250305250304
-20,7570207570207
-15,8730158730158
-6,10500610500608
-1,22100122100122
3,66300366300365
-10,989010989011
-30,5250305250304
-45,177045177045
-45,177045177045
-45,177045177045
-45,177045177045
-40,2930402930402
-30,5250305250304
-6,10500610500608
23,1990231990231
64,7130647130645
108,669108669108
123,321123321123
128,205128205129
142,857142857143
164,835164835165
199,023199023199
189,255189255189
137,973137973138
79,3650793650791
28,083028083028
-1,22100122100122
-15,8730158730158
-35,4090354090353
-62,2710622710621
-72,0390720390718
-86,6910866910864
-91,5750915750913
-91,5750915750913
-101,343101343101
-130,647130647131
-152,625152625153
-152,625152625153
-120,87912087912
-86,6910866910864
-52,5030525030523
-25,6410256410256
-15,8730158730158
-10,989010989011
-1,22100122100122
18,3150183150183
47,6190476190475
84,249084249084
108,669108669108
108,669108669108
84,249084249084
47,6190476190475
37,8510378510377
47,6190476190475
69,5970695970694
84,249084249084
84,249084249084
98,9010989010986
108,669108669108
113,553113553113
103,785103785103
64,7130647130645
23,1990231990231
-10,989010989011
-30,5250305250304
-52,5030525030523
-67,1550671550669
-81,8070818070815
-86,6910866910864
-72,0390720390718
-62,2710622710621
-57,3870573870572
-45,177045177045
-35,4090354090353
-15,8730158730158
-6,10500610500608
-6,10500610500608
-6,10500610500608
-10,989010989011
-25,6410256410256
-52,5030525030523
-45,177045177045
-30,5250305250304
-30,5250305250304
-30,5250305250304
-25,6410256410256
-20,7570207570207
-10,989010989011
-10,989010989011
-20,7570207570207
-45,177045177045
-72,0390720390718
-76,9230769230767
-52,5030525030523
-10,989010989011
54,9450549450548
108,669108669108
155,067155067155
203,907203907204
223,443223443224
184,371184371185
123,321123321123
89,1330891330888
103,785103785103
133,089133089133
123,321123321123
54,9450549450548
-6,10500610500608
-40,2930402930402
-57,3870573870572
-62,2710622710621
-57,3870573870572
-52,5030525030523
-45,177045177045
-40,2930402930402
-45,177045177045
-30,5250305250304
-10,989010989011
3,66300366300365
8,54700854700852
13,4310134310134
8,54700854700852
3,66300366300365
-1,22100122100122
-10,989010989011
-15,8730158730158
-40,2930402930402
-72,0390720390718
-81,8070818070815
-76,9230769230767
-62,2710622710621
-35,4090354090353
-10,989010989011
-6,10500610500608
-1,22100122100122
3,66300366300365
3,66300366300365
8,54700854700852
8,54700854700852
8,54700854700852
18,3150183150183
18,3150183150183
3,66300366300365
-15,8730158730158
-30,5250305250304
-20,7570207570207
-6,10500610500608
3,66300366300365
-10,989010989011
-6,10500610500608
-1,22100122100122
23,1990231990231
47,6190476190475
54,9450549450548
54,9450549450548
47,6190476190475
64,7130647130645
103,785103785103
118,437118437118
108,669108669108
94,0170940170937
69,5970695970694
32,9670329670329
8,54700854700852
-6,10500610500608
-10,989010989011
-15,8730158730158
-10,989010989011
3,66300366300365
23,1990231990231
37,8510378510377
54,9450549450548
47,6190476190475
18,3150183150183
-6,10500610500608
-30,5250305250304
-45,177045177045
-57,3870573870572
-91,5750915750913
-125,763125763126
-140,415140415141
-130,647130647131
-111,111111111111
-106,227106227106
-72,0390720390718
-30,5250305250304
8,54700854700852
28,083028083028
23,1990231990231
18,3150183150183
13,4310134310134
18,3150183150183
23,1990231990231
23,1990231990231
23,1990231990231
32,9670329670329
47,6190476190475
69,5970695970694
98,9010989010986
137,973137973138
118,437118437118
47,6190476190475
-10,989010989011
-40,2930402930402
-45,177045177045
-45,177045177045
-45,177045177045
-40,2930402930402
-30,5250305250304
-10,989010989011
28,083028083028
74,4810744810742
103,785103785103
123,321123321123
155,067155067155
189,255189255189
179,48717948718
108,669108669108
42,7350427350426
3,66300366300365
-15,8730158730158
-30,5250305250304
-57,3870573870572
-91,5750915750913
-120,87912087912
-120,87912087912
-111,111111111111
-91,5750915750913
-76,9230769230767
-62,2710622710621
-52,5030525030523
-35,4090354090353
-25,6410256410256
-10,989010989011
8,54700854700852
23,1990231990231
37,8510378510377
59,8290598290596
69,5970695970694
69,5970695970694
59,8290598290596
32,9670329670329
8,54700854700852
-10,989010989011
-20,7570207570207
-20,7570207570207
-15,8730158730158
-10,989010989011
-10,989010989011
-10,989010989011
-6,10500610500608
-6,10500610500608
3,66300366300365
8,54700854700852
8,54700854700852
8,54700854700852
3,66300366300365
3,66300366300365
-6,10500610500608
-6,10500610500608
-1,22100122100122
3,66300366300365
8,54700854700852
8,54700854700852
3,66300366300365
-1,22100122100122
-1,22100122100122
-1,22100122100122
-1,22100122100122
-1,22100122100122
3,66300366300365
8,54700854700852
18,3150183150183
23,1990231990231
28,083028083028
32,9670329670329
32,9670329670329
32,9670329670329
13,4310134310134
-10,989010989011
-20,7570207570207
-30,5250305250304
-52,5030525030523
-52,5030525030523
-40,2930402930402
-52,5030525030523
-52,5030525030523
-35,4090354090353
3,66300366300365
47,6190476190475
89,1330891330888
113,553113553113
108,669108669108
84,249084249084
84,249084249084
98,9010989010986
98,9010989010986
79,3650793650791
42,7350427350426
18,3150183150183
-6,10500610500608
-10,989010989011
-10,989010989011
-20,7570207570207
-20,7570207570207
-15,8730158730158
-10,989010989011
13,4310134310134
32,9670329670329
37,8510378510377
28,083028083028
8,54700854700852
-20,7570207570207
-72,0390720390718
-101,343101343101
-111,111111111111
-120,87912087912
-120,87912087912
-111,111111111111
-91,5750915750913
-67,1550671550669
-30,5250305250304
13,4310134310134
54,9450549450548
89,1330891330888
118,437118437118
128,205128205129
128,205128205129
103,785103785103
64,7130647130645
23,1990231990231
-10,989010989011
-52,5030525030523
-72,0390720390718
-72,0390720390718
-72,0390720390718
-57,3870573870572
-15,8730158730158
28,083028083028
64,7130647130645
84,249084249084
94,0170940170937
84,249084249084
59,8290598290596
32,9670329670329
18,3150183150183
3,66300366300365
-10,989010989011
-25,6410256410256
-30,5250305250304
-30,5250305250304
-52,5030525030523
-72,0390720390718
-72,0390720390718
-52,5030525030523
-30,5250305250304
-10,989010989011
-1,22100122100122
8,54700854700852
23,1990231990231
32,9670329670329
37,8510378510377
42,7350427350426
64,7130647130645
108,669108669108
123,321123321123
103,785103785103
59,8290598290596
8,54700854700852
-6,10500610500608
-6,10500610500608
8,54700854700852
23,1990231990231
28,083028083028
23,1990231990231
8,54700854700852
-10,989010989011
-30,5250305250304
-40,2930402930402
-52,5030525030523
-57,3870573870572
-62,2710622710621
-67,1550671550669
-76,9230769230767
-81,8070818070815
-81,8070818070815
-72,0390720390718
-40,2930402930402
3,66300366300365
84,249084249084
159,95115995116
184,371184371185
164,835164835165
123,321123321123
59,8290598290596
-1,22100122100122
-30,5250305250304
-40,2930402930402
-45,177045177045
-40,2930402930402
-35,4090354090353
-35,4090354090353
-30,5250305250304
-25,6410256410256
-25,6410256410256
-10,989010989011
32,9670329670329
89,1330891330888
123,321123321123
108,669108669108
69,5970695970694
23,1990231990231
-10,989010989011
-30,5250305250304
-45,177045177045
-45,177045177045
-25,6410256410256
-20,7570207570207
-35,4090354090353
-52,5030525030523
-52,5030525030523
-52,5030525030523
-35,4090354090353
-30,5250305250304
-20,7570207570207
-15,8730158730158
-10,989010989011
13,4310134310134
54,9450549450548
98,9010989010986
128,205128205129
123,321123321123
89,1330891330888
89,1330891330888
94,0170940170937
74,4810744810742
47,6190476190475
8,54700854700852
-10,989010989011
-10,989010989011
-15,8730158730158
-30,5250305250304
-62,2710622710621
-115,995115995116
-191,697191697192
-216,117216117216
-186,813186813187
-140,415140415141
-101,343101343101
-57,3870573870572
-15,8730158730158
8,54700854700852
28,083028083028
47,6190476190475
47,6190476190475
54,9450549450548
54,9450549450548
54,9450549450548
64,7130647130645
59,8290598290596
54,9450549450548
47,6190476190475
47,6190476190475
42,7350427350426
37,8510378510377
37,8510378510377
23,1990231990231
8,54700854700852
-6,10500610500608
-25,6410256410256
-45,177045177045
-35,4090354090353
-15,8730158730158
-10,989010989011
-6,10500610500608
-6,10500610500608
-6,10500610500608
3,66300366300365
18,3150183150183
69,5970695970694
123,321123321123
164,835164835165
189,255189255189
174,603174603175
133,089133089133
74,4810744810742
28,083028083028
-10,989010989011
-25,6410256410256
-15,8730158730158
-10,989010989011
-15,8730158730158
-35,4090354090353
-45,177045177045
-40,2930402930402
-35,4090354090353
-40,2930402930402
-45,177045177045
-35,4090354090353
-30,5250305250304
-25,6410256410256
-15,8730158730158
-15,8730158730158
-10,989010989011
-6,10500610500608
-1,22100122100122
3,66300366300365
3,66300366300365
-1,22100122100122
-10,989010989011
-10,989010989011
-30,5250305250304
-40,2930402930402
-40,2930402930402
-52,5030525030523
-52,5030525030523
-45,177045177045
-35,4090354090353
-25,6410256410256
-15,8730158730158
-6,10500610500608
-6,10500610500608
3,66300366300365
28,083028083028
64,7130647130645
89,1330891330888
89,1330891330888
94,0170940170937
103,785103785103
64,7130647130645
3,66300366300365
-35,4090354090353
-45,177045177045
-40,2930402930402
-30,5250305250304
-10,989010989011
-6,10500610500608
-15,8730158730158
-30,5250305250304
-10,989010989011
13,4310134310134
47,6190476190475
98,9010989010986
113,553113553113
89,1330891330888
28,083028083028
-20,7570207570207
-30,5250305250304
-6,10500610500608
32,9670329670329
74,4810744810742
128,205128205129
147,741147741148
103,785103785103
42,7350427350426
-1,22100122100122
-30,5250305250304
-62,2710622710621
-86,6910866910864
-101,343101343101
-91,5750915750913
-91,5750915750913
-91,5750915750913
-76,9230769230767
-52,5030525030523
-25,6410256410256
-6,10500610500608
13,4310134310134
28,083028083028
32,9670329670329
47,6190476190475
74,4810744810742
74,4810744810742
64,7130647130645
32,9670329670329
3,66300366300365
-20,7570207570207
-20,7570207570207
-20,7570207570207
-20,7570207570207
-15,8730158730158
-10,989010989011
28,083028083028
84,249084249084
98,9010989010986
69,5970695970694
37,8510378510377
28,083028083028
28,083028083028
18,3150183150183
-1,22100122100122
-20,7570207570207
-30,5250305250304
-40,2930402930402
-52,5030525030523
-62,2710622710621
-76,9230769230767
-101,343101343101
-125,763125763126
-115,995115995116
-96,4590964590961
-72,0390720390718
-40,2930402930402
3,66300366300365
32,9670329670329
47,6190476190475
47,6190476190475
42,7350427350426
37,8510378510377
32,9670329670329
32,9670329670329
32,9670329670329
42,7350427350426
47,6190476190475
47,6190476190475
42,7350427350426
32,9670329670329
23,1990231990231
18,3150183150183
8,54700854700852
8,54700854700852
13,4310134310134
18,3150183150183
18,3150183150183
18,3150183150183
13,4310134310134
13,4310134310134
13,4310134310134
8,54700854700852
-10,989010989011
-30,5250305250304
-25,6410256410256
-6,10500610500608
18,3150183150183
28,083028083028
32,9670329670329
28,083028083028
8,54700854700852
-10,989010989011
-6,10500610500608
18,3150183150183
32,9670329670329
37,8510378510377
32,9670329670329
8,54700854700852
-15,8730158730158
-30,5250305250304
-30,5250305250304
-35,4090354090353
-30,5250305250304
-10,989010989011
3,66300366300365
13,4310134310134
8,54700854700852
-10,989010989011
-20,7570207570207
-25,6410256410256
-35,4090354090353
-35,4090354090353
-20,7570207570207
-6,10500610500608
28,083028083028
84,249084249084
137,973137973138
179,48717948718
169,71916971917
98,9010989010986
42,7350427350426
23,1990231990231
28,083028083028
8,54700854700852
-10,989010989011
-15,8730158730158
-15,8730158730158
-15,8730158730158
-6,10500610500608
28,083028083028
74,4810744810742
79,3650793650791
47,6190476190475
8,54700854700852
-30,5250305250304
-45,177045177045
-52,5030525030523
-52,5030525030523
-52,5030525030523
-57,3870573870572
-57,3870573870572
-52,5030525030523
-45,177045177045
-40,2930402930402
-35,4090354090353
-35,4090354090353
-30,5250305250304
-30,5250305250304
-30,5250305250304
-30,5250305250304
-30,5250305250304
-20,7570207570207
-6,10500610500608
18,3150183150183
32,9670329670329
37,8510378510377
32,9670329670329
23,1990231990231
13,4310134310134
13,4310134310134
8,54700854700852
8,54700854700852
8,54700854700852
13,4310134310134
18,3150183150183
23,1990231990231
18,3150183150183
18,3150183150183
18,3150183150183
13,4310134310134
8,54700854700852
8,54700854700852
18,3150183150183
32,9670329670329
28,083028083028
8,54700854700852
-6,10500610500608
-10,989010989011
-6,10500610500608
-6,10500610500608
-10,989010989011
-20,7570207570207
-30,5250305250304
-40,2930402930402
-30,5250305250304
-15,8730158730158
3,66300366300365
23,1990231990231
23,1990231990231
18,3150183150183
3,66300366300365
3,66300366300365
3,66300366300365
-10,989010989011
-30,5250305250304
-40,2930402930402
-20,7570207570207
-1,22100122100122
18,3150183150183
28,083028083028
28,083028083028
28,083028083028
23,1990231990231
23,1990231990231
23,1990231990231
28,083028083028
23,1990231990231
18,3150183150183
18,3150183150183
18,3150183150183
13,4310134310134
8,54700854700852
-1,22100122100122
3,66300366300365
3,66300366300365
8,54700854700852
8,54700854700852
3,66300366300365
3,66300366300365
23,1990231990231
74,4810744810742
108,669108669108
108,669108669108
79,3650793650791
64,7130647130645
42,7350427350426
28,083028083028
8,54700854700852
-6,10500610500608
-15,8730158730158
-35,4090354090353
-45,177045177045
-52,5030525030523
-62,2710622710621
-62,2710622710621
-35,4090354090353
-10,989010989011
-1,22100122100122
3,66300366300365
-1,22100122100122
-1,22100122100122
3,66300366300365
8,54700854700852
18,3150183150183
28,083028083028
28,083028083028
23,1990231990231
18,3150183150183
3,66300366300365
-10,989010989011
-20,7570207570207
3,66300366300365
47,6190476190475
64,7130647130645
47,6190476190475
8,54700854700852
-25,6410256410256
-35,4090354090353
-35,4090354090353
-30,5250305250304
-30,5250305250304
-52,5030525030523
-86,6910866910864
-91,5750915750913
-62,2710622710621
-15,8730158730158
18,3150183150183
42,7350427350426
59,8290598290596
84,249084249084
94,0170940170937
89,1330891330888
69,5970695970694
42,7350427350426
18,3150183150183
-1,22100122100122
-10,989010989011
-10,989010989011
-20,7570207570207
-20,7570207570207
-20,7570207570207
-15,8730158730158
-6,10500610500608
3,66300366300365
8,54700854700852
8,54700854700852
18,3150183150183
18,3150183150183
18,3150183150183
8,54700854700852
-10,989010989011
-30,5250305250304
-30,5250305250304
-30,5250305250304
-30,5250305250304
-20,7570207570207
-10,989010989011
-10,989010989011
-20,7570207570207
-30,5250305250304
-40,2930402930402
-40,2930402930402
-15,8730158730158
37,8510378510377
123,321123321123
164,835164835165
118,437118437118
54,9450549450548
18,3150183150183
13,4310134310134
28,083028083028
37,8510378510377
23,1990231990231
-1,22100122100122
-20,7570207570207
-30,5250305250304
-20,7570207570207
-10,989010989011
-15,8730158730158
-30,5250305250304
-25,6410256410256
-6,10500610500608
13,4310134310134
32,9670329670329
54,9450549450548
74,4810744810742
94,0170940170937
118,437118437118
128,205128205129
98,9010989010986
42,7350427350426
-10,989010989011
-62,2710622710621
-91,5750915750913
-130,647130647131
-157,509157509158
-152,625152625153
-111,111111111111
-76,9230769230767
-57,3870573870572
-35,4090354090353
-20,7570207570207
-6,10500610500608
3,66300366300365
8,54700854700852
18,3150183150183
23,1990231990231
18,3150183150183
13,4310134310134
18,3150183150183
23,1990231990231
42,7350427350426
54,9450549450548
59,8290598290596
42,7350427350426
28,083028083028
23,1990231990231
18,3150183150183
23,1990231990231
18,3150183150183
3,66300366300365
3,66300366300365
8,54700854700852
18,3150183150183
23,1990231990231
23,1990231990231
23,1990231990231
23,1990231990231
42,7350427350426
47,6190476190475
37,8510378510377
28,083028083028
23,1990231990231
-1,22100122100122
-20,7570207570207
-30,5250305250304
-40,2930402930402
-40,2930402930402
-45,177045177045
-57,3870573870572
-67,1550671550669
-72,0390720390718
-72,0390720390718
-57,3870573870572
-30,5250305250304
-6,10500610500608
8,54700854700852
3,66300366300365
-10,989010989011
-10,989010989011
-10,989010989011
3,66300366300365
23,1990231990231
59,8290598290596
103,785103785103
164,835164835165
194,139194139194
159,95115995116
98,9010989010986
64,7130647130645
59,8290598290596
47,6190476190475
23,1990231990231
-10,989010989011
-30,5250305250304
-45,177045177045
-52,5030525030523
-45,177045177045
-35,4090354090353
-30,5250305250304
-10,989010989011
-6,10500610500608
-10,989010989011
-10,989010989011
8,54700854700852
32,9670329670329
47,6190476190475
47,6190476190475
32,9670329670329
18,3150183150183
-10,989010989011
-25,6410256410256
-25,6410256410256
-20,7570207570207
3,66300366300365
28,083028083028
32,9670329670329
18,3150183150183
-1,22100122100122
-10,989010989011
-15,8730158730158
-25,6410256410256
-25,6410256410256
-30,5250305250304
-30,5250305250304
-25,6410256410256
-25,6410256410256
-30,5250305250304
-25,6410256410256
-15,8730158730158
-20,7570207570207
-30,5250305250304
-30,5250305250304
-35,4090354090353
-52,5030525030523
-62,2710622710621
-45,177045177045
-30,5250305250304
-10,989010989011
3,66300366300365
28,083028083028
47,6190476190475
69,5970695970694
113,553113553113
174,603174603175
179,48717948718
128,205128205129
108,669108669108
89,1330891330888
47,6190476190475
-6,10500610500608
-52,5030525030523
-86,6910866910864
-91,5750915750913
-86,6910866910864
-76,9230769230767
-76,9230769230767
-76,9230769230767
-76,9230769230767
-62,2710622710621
-35,4090354090353
8,54700854700852
64,7130647130645
84,249084249084
64,7130647130645
32,9670329670329
13,4310134310134
8,54700854700852
13,4310134310134
8,54700854700852
3,66300366300365
-10,989010989011
-10,989010989011
-1,22100122100122
18,3150183150183
23,1990231990231
28,083028083028
23,1990231990231
13,4310134310134
3,66300366300365
-1,22100122100122
3,66300366300365
8,54700854700852
3,66300366300365
-10,989010989011
-15,8730158730158
-20,7570207570207
-20,7570207570207
-15,8730158730158
-10,989010989011
3,66300366300365
28,083028083028
54,9450549450548
69,5970695970694
74,4810744810742
59,8290598290596
42,7350427350426
32,9670329670329
23,1990231990231
13,4310134310134
8,54700854700852
-6,10500610500608
-25,6410256410256
-72,0390720390718
-91,5750915750913
-67,1550671550669
-25,6410256410256
-6,10500610500608
8,54700854700852
13,4310134310134
18,3150183150183
18,3150183150183
13,4310134310134
8,54700854700852
8,54700854700852
8,54700854700852
8,54700854700852
8,54700854700852
-6,10500610500608
-25,6410256410256
-30,5250305250304
-20,7570207570207
-15,8730158730158
-10,989010989011
-10,989010989011
-10,989010989011
-10,989010989011
-1,22100122100122
18,3150183150183
47,6190476190475
98,9010989010986
128,205128205129
142,857142857143
123,321123321123
103,785103785103
103,785103785103
98,9010989010986
74,4810744810742
37,8510378510377
3,66300366300365
-25,6410256410256
-45,177045177045
-52,5030525030523
-57,3870573870572
-52,5030525030523
-57,3870573870572
-67,1550671550669
-81,8070818070815
-91,5750915750913
-91,5750915750913
-81,8070818070815
-62,2710622710621
-40,2930402930402
-20,7570207570207
-6,10500610500608
8,54700854700852
18,3150183150183
23,1990231990231
32,9670329670329
59,8290598290596
79,3650793650791
98,9010989010986
103,785103785103
69,5970695970694
32,9670329670329
8,54700854700852
-6,10500610500608
-10,989010989011
-10,989010989011
-15,8730158730158
-20,7570207570207
-25,6410256410256
-25,6410256410256
-25,6410256410256
-25,6410256410256
-25,6410256410256
-20,7570207570207
-20,7570207570207
-20,7570207570207
-20,7570207570207
-20,7570207570207
-15,8730158730158
3,66300366300365
18,3150183150183
18,3150183150183
13,4310134310134
13,4310134310134
18,3150183150183
59,8290598290596
108,669108669108
133,089133089133
128,205128205129
89,1330891330888
47,6190476190475
18,3150183150183
8,54700854700852
23,1990231990231
23,1990231990231
-20,7570207570207
-91,5750915750913
-135,531135531136
-162,393162393163
-172,161172161172
-167,277167277168
-135,531135531136
-106,227106227106
-72,0390720390718
-40,2930402930402
-20,7570207570207
3,66300366300365
54,9450549450548
142,857142857143
247,863247863248
279,60927960928
203,907203907204
98,9010989010986
23,1990231990231
3,66300366300365
-1,22100122100122
-10,989010989011
-20,7570207570207
-15,8730158730158
-6,10500610500608
3,66300366300365
13,4310134310134
47,6190476190475
69,5970695970694
54,9450549450548
28,083028083028
3,66300366300365
-15,8730158730158
-30,5250305250304
-45,177045177045
-52,5030525030523
-57,3870573870572
-62,2710622710621
-62,2710622710621
-45,177045177045
-30,5250305250304
-30,5250305250304
-30,5250305250304
-20,7570207570207
-6,10500610500608
8,54700854700852
13,4310134310134
3,66300366300365
-10,989010989011
-25,6410256410256
-25,6410256410256
-20,7570207570207
-10,989010989011
-1,22100122100122
13,4310134310134
23,1990231990231
32,9670329670329
42,7350427350426
59,8290598290596
64,7130647130645
69,5970695970694
89,1330891330888
103,785103785103
103,785103785103
79,3650793650791
47,6190476190475
23,1990231990231
3,66300366300365
-6,10500610500608
-10,989010989011
-10,989010989011
-10,989010989011
-10,989010989011
-15,8730158730158
-15,8730158730158
-15,8730158730158
-20,7570207570207
-15,8730158730158
-15,8730158730158
-15,8730158730158
-10,989010989011
-6,10500610500608
-6,10500610500608
-10,989010989011
-6,10500610500608
-6,10500610500608
-6,10500610500608
-1,22100122100122
-1,22100122100122
3,66300366300365
3,66300366300365
8,54700854700852
3,66300366300365
3,66300366300365
3,66300366300365
3,66300366300365
-1,22100122100122
-6,10500610500608
-6,10500610500608
-1,22100122100122
3,66300366300365
-1,22100122100122
-20,7570207570207
-35,4090354090353
-35,4090354090353
-35,4090354090353
-25,6410256410256
-15,8730158730158
3,66300366300365
23,1990231990231
32,9670329670329
37,8510378510377
54,9450549450548
79,3650793650791
128,205128205129
155,067155067155
164,835164835165
137,973137973138
84,249084249084
37,8510378510377
3,66300366300365
-10,989010989011
-20,7570207570207
-62,2710622710621
-120,87912087912
-167,277167277168
-177,045177045177
-177,045177045177
-172,161172161172
-145,299145299146
-111,111111111111
-91,5750915750913
-62,2710622710621
-15,8730158730158
13,4310134310134
47,6190476190475
84,249084249084
103,785103785103
108,669108669108
133,089133089133
179,48717948718
233,211233211233
238,095238095238
189,255189255189
137,973137973138
84,249084249084
28,083028083028
-6,10500610500608
-25,6410256410256
-35,4090354090353
-45,177045177045
-30,5250305250304
8,54700854700852
23,1990231990231
3,66300366300365
-30,5250305250304
-57,3870573870572
-72,0390720390718
-72,0390720390718
-72,0390720390718
-72,0390720390718
-67,1550671550669
-62,2710622710621
-62,2710622710621
-62,2710622710621
-62,2710622710621
-52,5030525030523
-40,2930402930402
-35,4090354090353
-35,4090354090353
-15,8730158730158
3,66300366300365
3,66300366300365
-1,22100122100122
3,66300366300365
8,54700854700852
23,1990231990231
32,9670329670329
32,9670329670329
37,8510378510377
47,6190476190475
79,3650793650791
113,553113553113
118,437118437118
108,669108669108
74,4810744810742
47,6190476190475
28,083028083028
13,4310134310134
3,66300366300365
-10,989010989011
-10,989010989011
-15,8730158730158
-20,7570207570207
-20,7570207570207
-25,6410256410256
-40,2930402930402
-52,5030525030523
-52,5030525030523
-40,2930402930402
-30,5250305250304
-15,8730158730158
-10,989010989011
-1,22100122100122
8,54700854700852
13,4310134310134
23,1990231990231
23,1990231990231
32,9670329670329
28,083028083028
28,083028083028
23,1990231990231
23,1990231990231
18,3150183150183
8,54700854700852
-6,10500610500608
-30,5250305250304
-57,3870573870572
-72,0390720390718
-67,1550671550669
-45,177045177045
-20,7570207570207
-10,989010989011
3,66300366300365
18,3150183150183
32,9670329670329
59,8290598290596
89,1330891330888
128,205128205129
169,71916971917
189,255189255189
147,741147741148
64,7130647130645
-15,8730158730158
-76,9230769230767
-86,6910866910864
-72,0390720390718
-45,177045177045
-25,6410256410256
-20,7570207570207
-20,7570207570207
-20,7570207570207
-20,7570207570207
-6,10500610500608
23,1990231990231
47,6190476190475
59,8290598290596
42,7350427350426
8,54700854700852
-10,989010989011
-10,989010989011
-10,989010989011
-10,989010989011
-10,989010989011
-6,10500610500608
-6,10500610500608
13,4310134310134
32,9670329670329
42,7350427350426
37,8510378510377
28,083028083028
18,3150183150183
3,66300366300365
-6,10500610500608
-10,989010989011
-10,989010989011
-15,8730158730158
-35,4090354090353
-52,5030525030523
-35,4090354090353
-25,6410256410256
-40,2930402930402
-62,2710622710621
-67,1550671550669
-67,1550671550669
-81,8070818070815
-86,6910866910864
-81,8070818070815
-62,2710622710621
-52,5030525030523
-35,4090354090353
-10,989010989011
23,1990231990231
59,8290598290596
98,9010989010986
108,669108669108
89,1330891330888
79,3650793650791
69,5970695970694
64,7130647130645
59,8290598290596
47,6190476190475
47,6190476190475
47,6190476190475
47,6190476190475
54,9450549450548
32,9670329670329
18,3150183150183
3,66300366300365
-6,10500610500608
-10,989010989011
-1,22100122100122
-6,10500610500608
-10,989010989011
-15,8730158730158
-10,989010989011
-15,8730158730158
-15,8730158730158
-20,7570207570207
-10,989010989011
-15,8730158730158
-20,7570207570207
-10,989010989011
-1,22100122100122
18,3150183150183
28,083028083028
47,6190476190475
74,4810744810742
84,249084249084
69,5970695970694
47,6190476190475
28,083028083028
28,083028083028
59,8290598290596
69,5970695970694
59,8290598290596
28,083028083028
3,66300366300365
-10,989010989011
-15,8730158730158
-25,6410256410256
-30,5250305250304
-35,4090354090353
-57,3870573870572
-62,2710622710621
-62,2710622710621
-57,3870573870572
-52,5030525030523
-40,2930402930402
-20,7570207570207
-1,22100122100122
-1,22100122100122
-10,989010989011
-20,7570207570207
-15,8730158730158
-6,10500610500608
8,54700854700852
18,3150183150183
3,66300366300365
-10,989010989011
-20,7570207570207
-20,7570207570207
-10,989010989011
-6,10500610500608
3,66300366300365
18,3150183150183
37,8510378510377
79,3650793650791
84,249084249084
42,7350427350426
-10,989010989011
-40,2930402930402
-52,5030525030523
-57,3870573870572
-57,3870573870572
-52,5030525030523
-45,177045177045
-30,5250305250304
-10,989010989011
3,66300366300365
28,083028083028
69,5970695970694
137,973137973138
228,327228327228
264,957264957265
218,559218559219
137,973137973138
54,9450549450548
-6,10500610500608
-45,177045177045
-72,0390720390718
-81,8070818070815
-86,6910866910864
-91,5750915750913
-91,5750915750913
-72,0390720390718
-57,3870573870572
-35,4090354090353
-10,989010989011
18,3150183150183
47,6190476190475
79,3650793650791
108,669108669108
123,321123321123
103,785103785103
47,6190476190475
-15,8730158730158
-76,9230769230767
-101,343101343101
-101,343101343101
-86,6910866910864
-72,0390720390718
-57,3870573870572
-40,2930402930402
-25,6410256410256
-10,989010989011
3,66300366300365
23,1990231990231
64,7130647130645
108,669108669108
159,95115995116
174,603174603175
147,741147741148
108,669108669108
64,7130647130645
32,9670329670329
-6,10500610500608
-52,5030525030523
-111,111111111111
-162,393162393163
-191,697191697192
-167,277167277168
-125,763125763126
-96,4590964590961
-76,9230769230767
-52,5030525030523
-20,7570207570207
13,4310134310134
47,6190476190475
89,1330891330888
103,785103785103
84,249084249084
64,7130647130645
47,6190476190475
28,083028083028
13,4310134310134
-6,10500610500608
-10,989010989011
-10,989010989011
-1,22100122100122
-1,22100122100122
-6,10500610500608
-6,10500610500608
8,54700854700852
23,1990231990231
37,8510378510377
32,9670329670329
28,083028083028
28,083028083028
32,9670329670329
28,083028083028
18,3150183150183
8,54700854700852
-10,989010989011
-30,5250305250304
-40,2930402930402
-40,2930402930402
-30,5250305250304
-15,8730158730158
-6,10500610500608
3,66300366300365
13,4310134310134
8,54700854700852
-6,10500610500608
-10,989010989011
-6,10500610500608
8,54700854700852
8,54700854700852
3,66300366300365
-6,10500610500608
-10,989010989011
-10,989010989011
3,66300366300365
18,3150183150183
32,9670329670329
54,9450549450548
79,3650793650791
98,9010989010986
103,785103785103
89,1330891330888
69,5970695970694
28,083028083028
3,66300366300365
-25,6410256410256
-52,5030525030523
-67,1550671550669
-86,6910866910864
-101,343101343101
-91,5750915750913
-57,3870573870572
-15,8730158730158
32,9670329670329
89,1330891330888
137,973137973138
184,371184371185
174,603174603175
113,553113553113
59,8290598290596
23,1990231990231
3,66300366300365
-10,989010989011
-30,5250305250304
-52,5030525030523
-52,5030525030523
-52,5030525030523
-35,4090354090353
-15,8730158730158
3,66300366300365
18,3150183150183
8,54700854700852
-25,6410256410256
-57,3870573870572
-81,8070818070815
-106,227106227106
-111,111111111111
-96,4590964590961
-40,2930402930402
18,3150183150183
37,8510378510377
18,3150183150183
-10,989010989011
-15,8730158730158
8,54700854700852
54,9450549450548
74,4810744810742
64,7130647130645
28,083028083028
-1,22100122100122
-10,989010989011
-20,7570207570207
-25,6410256410256
-20,7570207570207
-10,989010989011
8,54700854700852
28,083028083028
59,8290598290596
98,9010989010986
113,553113553113
108,669108669108
69,5970695970694
23,1990231990231
-10,989010989011
-25,6410256410256
-30,5250305250304
-30,5250305250304
-30,5250305250304
-25,6410256410256
-20,7570207570207
-15,8730158730158
-10,989010989011
-1,22100122100122
3,66300366300365
-6,10500610500608
-6,10500610500608
-1,22100122100122
3,66300366300365
8,54700854700852
8,54700854700852
8,54700854700852
8,54700854700852
8,54700854700852
8,54700854700852
18,3150183150183
18,3150183150183
23,1990231990231
18,3150183150183
8,54700854700852
-1,22100122100122
-1,22100122100122
-6,10500610500608
-6,10500610500608
-6,10500610500608
-6,10500610500608
-10,989010989011
-10,989010989011
-10,989010989011
-1,22100122100122
8,54700854700852
18,3150183150183
8,54700854700852
-1,22100122100122
-1,22100122100122
3,66300366300365
8,54700854700852
18,3150183150183
23,1990231990231
8,54700854700852
-15,8730158730158
-30,5250305250304
-20,7570207570207
-6,10500610500608
42,7350427350426
74,4810744810742
69,5970695970694
42,7350427350426
18,3150183150183
8,54700854700852
8,54700854700852
8,54700854700852
8,54700854700852
3,66300366300365
-10,989010989011
-35,4090354090353
-45,177045177045
-45,177045177045
-30,5250305250304
-15,8730158730158
-10,989010989011
-6,10500610500608
3,66300366300365
8,54700854700852
13,4310134310134
13,4310134310134
18,3150183150183
18,3150183150183
28,083028083028
37,8510378510377
42,7350427350426
28,083028083028
18,3150183150183
3,66300366300365
-10,989010989011
-6,10500610500608
-1,22100122100122
8,54700854700852
8,54700854700852
3,66300366300365
-10,989010989011
-15,8730158730158
-30,5250305250304
-35,4090354090353
-45,177045177045
-52,5030525030523
-30,5250305250304
-20,7570207570207
-10,989010989011
-1,22100122100122
18,3150183150183
32,9670329670329
18,3150183150183
-6,10500610500608
3,66300366300365
18,3150183150183
23,1990231990231
18,3150183150183
18,3150183150183
18,3150183150183
8,54700854700852
18,3150183150183
23,1990231990231
47,6190476190475
89,1330891330888
155,067155067155
233,211233211233
255,189255189255
155,067155067155
47,6190476190475
-6,10500610500608
-20,7570207570207
-30,5250305250304
-45,177045177045
-57,3870573870572
-67,1550671550669
-67,1550671550669
-67,1550671550669
-62,2710622710621
-57,3870573870572
-57,3870573870572
-52,5030525030523
-40,2930402930402
-30,5250305250304
-20,7570207570207
-10,989010989011
-10,989010989011
-10,989010989011
-10,989010989011
-15,8730158730158
-15,8730158730158
-15,8730158730158
-20,7570207570207
-15,8730158730158
-10,989010989011
-10,989010989011
-10,989010989011
-6,10500610500608
-1,22100122100122
8,54700854700852
13,4310134310134
13,4310134310134
18,3150183150183
13,4310134310134
18,3150183150183
18,3150183150183
18,3150183150183
18,3150183150183
18,3150183150183
18,3150183150183
8,54700854700852
8,54700854700852
8,54700854700852
13,4310134310134
13,4310134310134
13,4310134310134
8,54700854700852
8,54700854700852
8,54700854700852
13,4310134310134
23,1990231990231
42,7350427350426
59,8290598290596
47,6190476190475
42,7350427350426
28,083028083028
8,54700854700852
3,66300366300365
-1,22100122100122
-6,10500610500608
-30,5250305250304
-72,0390720390718
-106,227106227106
-111,111111111111
-101,343101343101
-81,8070818070815
-57,3870573870572
-20,7570207570207
-6,10500610500608
-6,10500610500608
-10,989010989011
3,66300366300365
37,8510378510377
94,0170940170937
147,741147741148
169,71916971917
133,089133089133
74,4810744810742
23,1990231990231
-35,4090354090353
-62,2710622710621
-67,1550671550669
-40,2930402930402
8,54700854700852
47,6190476190475
54,9450549450548
32,9670329670329
18,3150183150183
18,3150183150183
28,083028083028
42,7350427350426
59,8290598290596
94,0170940170937
118,437118437118
108,669108669108
74,4810744810742
42,7350427350426
13,4310134310134
-6,10500610500608
-15,8730158730158
-30,5250305250304
-40,2930402930402
-52,5030525030523
-62,2710622710621
-81,8070818070815
-101,343101343101
-106,227106227106
-101,343101343101
-91,5750915750913
-72,0390720390718
-45,177045177045
-15,8730158730158
3,66300366300365
18,3150183150183
23,1990231990231
23,1990231990231
23,1990231990231
32,9670329670329
47,6190476190475
64,7130647130645
64,7130647130645
47,6190476190475
28,083028083028
8,54700854700852
-6,10500610500608
-10,989010989011
-10,989010989011
-1,22100122100122
3,66300366300365
-6,10500610500608
-20,7570207570207
-20,7570207570207
-20,7570207570207
-10,989010989011
3,66300366300365
18,3150183150183
32,9670329670329
37,8510378510377
28,083028083028
18,3150183150183
-1,22100122100122
-15,8730158730158
-15,8730158730158
-10,989010989011
-10,989010989011
3,66300366300365
3,66300366300365
3,66300366300365
-10,989010989011
-6,10500610500608
8,54700854700852
18,3150183150183
18,3150183150183
28,083028083028
47,6190476190475
84,249084249084
113,553113553113
113,553113553113
98,9010989010986
64,7130647130645
28,083028083028
-6,10500610500608
-30,5250305250304
-40,2930402930402
-15,8730158730158
-6,10500610500608
-10,989010989011
-40,2930402930402
-52,5030525030523
-67,1550671550669
-72,0390720390718
-57,3870573870572
-40,2930402930402
-25,6410256410256
-20,7570207570207
-10,989010989011
-10,989010989011
-1,22100122100122
18,3150183150183
23,1990231990231
23,1990231990231
23,1990231990231
18,3150183150183
18,3150183150183
8,54700854700852
-1,22100122100122
-1,22100122100122
8,54700854700852
13,4310134310134
3,66300366300365
-20,7570207570207
-52,5030525030523
-62,2710622710621
-57,3870573870572
-67,1550671550669
-62,2710622710621
-45,177045177045
-30,5250305250304
-10,989010989011
23,1990231990231
84,249084249084
169,71916971917
208,791208791209
189,255189255189
137,973137973138
69,5970695970694
23,1990231990231
-10,989010989011
-25,6410256410256
-30,5250305250304
-25,6410256410256
-25,6410256410256
-25,6410256410256
-10,989010989011
13,4310134310134
47,6190476190475
69,5970695970694
64,7130647130645
37,8510378510377
3,66300366300365
-20,7570207570207
-40,2930402930402
-45,177045177045
-45,177045177045
-35,4090354090353
-30,5250305250304
-30,5250305250304
-25,6410256410256
-25,6410256410256
-25,6410256410256
-25,6410256410256
-10,989010989011
3,66300366300365
18,3150183150183
18,3150183150183
13,4310134310134
18,3150183150183
23,1990231990231
23,1990231990231
8,54700854700852
8,54700854700852
8,54700854700852
18,3150183150183
8,54700854700852
-1,22100122100122
-10,989010989011
-10,989010989011
-1,22100122100122
3,66300366300365
13,4310134310134
13,4310134310134
13,4310134310134
18,3150183150183
23,1990231990231
28,083028083028
23,1990231990231
18,3150183150183
8,54700854700852
8,54700854700852
3,66300366300365
-10,989010989011
-10,989010989011
-25,6410256410256
-52,5030525030523
-72,0390720390718
-67,1550671550669
-45,177045177045
-15,8730158730158
3,66300366300365
8,54700854700852
8,54700854700852
3,66300366300365
-20,7570207570207
-40,2930402930402
-45,177045177045
-52,5030525030523
-45,177045177045
-40,2930402930402
-52,5030525030523
-45,177045177045
-30,5250305250304
-6,10500610500608
28,083028083028
79,3650793650791
159,95115995116
228,327228327228
233,211233211233
179,48717948718
108,669108669108
74,4810744810742
69,5970695970694
98,9010989010986
128,205128205129
133,089133089133
108,669108669108
84,249084249084
47,6190476190475
3,66300366300365
-20,7570207570207
-40,2930402930402
-72,0390720390718
-91,5750915750913
-111,111111111111
-111,111111111111
-101,343101343101
-96,4590964590961
-106,227106227106
-115,995115995116
-106,227106227106
-96,4590964590961
-81,8070818070815
-76,9230769230767
-57,3870573870572
-40,2930402930402
-15,8730158730158
13,4310134310134
32,9670329670329
42,7350427350426
28,083028083028
23,1990231990231
23,1990231990231
23,1990231990231
23,1990231990231
23,1990231990231
18,3150183150183
18,3150183150183
18,3150183150183
23,1990231990231
23,1990231990231
23,1990231990231
23,1990231990231
18,3150183150183
18,3150183150183
18,3150183150183
18,3150183150183
13,4310134310134
8,54700854700852
3,66300366300365
8,54700854700852
8,54700854700852
8,54700854700852
8,54700854700852
8,54700854700852
8,54700854700852
8,54700854700852
23,1990231990231
47,6190476190475
54,9450549450548
47,6190476190475
42,7350427350426
32,9670329670329
23,1990231990231
8,54700854700852
-1,22100122100122
-10,989010989011
-40,2930402930402
-62,2710622710621
-72,0390720390718
-57,3870573870572
-45,177045177045
-30,5250305250304
-25,6410256410256
-15,8730158730158
-1,22100122100122
13,4310134310134
18,3150183150183
23,1990231990231
32,9670329670329
37,8510378510377
32,9670329670329
18,3150183150183
8,54700854700852
-1,22100122100122
-10,989010989011
-10,989010989011
-10,989010989011
-1,22100122100122
3,66300366300365
13,4310134310134
28,083028083028
28,083028083028
23,1990231990231
23,1990231990231
18,3150183150183
18,3150183150183
13,4310134310134
-1,22100122100122
-10,989010989011
-20,7570207570207
-30,5250305250304
-25,6410256410256
-10,989010989011
-10,989010989011
-25,6410256410256
-35,4090354090353
-35,4090354090353
-30,5250305250304
-15,8730158730158
-1,22100122100122
28,083028083028
69,5970695970694
98,9010989010986
147,741147741148
194,139194139194
169,71916971917
123,321123321123
98,9010989010986
84,249084249084
74,4810744810742
47,6190476190475
18,3150183150183
-15,8730158730158
-45,177045177045
-67,1550671550669
-86,6910866910864
-76,9230769230767
-62,2710622710621
-72,0390720390718
-91,5750915750913
-106,227106227106
-111,111111111111
-111,111111111111
-101,343101343101
-76,9230769230767
-40,2930402930402
-25,6410256410256
-15,8730158730158
-10,989010989011
8,54700854700852
32,9670329670329
59,8290598290596
74,4810744810742
84,249084249084
74,4810744810742
69,5970695970694
84,249084249084
89,1330891330888
84,249084249084
69,5970695970694
69,5970695970694
69,5970695970694
59,8290598290596
47,6190476190475
23,1990231990231
-1,22100122100122
-10,989010989011
-20,7570207570207
-25,6410256410256
-30,5250305250304
-30,5250305250304
-40,2930402930402
-45,177045177045
-45,177045177045
-40,2930402930402
-35,4090354090353
-30,5250305250304
-25,6410256410256
-20,7570207570207
-20,7570207570207
-15,8730158730158
-15,8730158730158
-10,989010989011
-15,8730158730158
-25,6410256410256
-25,6410256410256
-20,7570207570207
-10,989010989011
3,66300366300365
18,3150183150183
32,9670329670329
47,6190476190475
47,6190476190475
42,7350427350426
32,9670329670329
23,1990231990231
18,3150183150183
-6,10500610500608
-25,6410256410256
-40,2930402930402
-30,5250305250304
-10,989010989011
3,66300366300365
3,66300366300365
3,66300366300365
-1,22100122100122
3,66300366300365
8,54700854700852
23,1990231990231
32,9670329670329
42,7350427350426
59,8290598290596
74,4810744810742
84,249084249084
79,3650793650791
64,7130647130645
37,8510378510377
18,3150183150183
3,66300366300365
-6,10500610500608
-10,989010989011
-10,989010989011
-1,22100122100122
18,3150183150183
37,8510378510377
37,8510378510377
28,083028083028
13,4310134310134
3,66300366300365
-10,989010989011
-25,6410256410256
-35,4090354090353
-52,5030525030523
-72,0390720390718
-96,4590964590961
-101,343101343101
-86,6910866910864
-72,0390720390718
-72,0390720390718
-62,2710622710621
-52,5030525030523
-30,5250305250304
-15,8730158730158
-6,10500610500608
18,3150183150183
23,1990231990231
28,083028083028
42,7350427350426
64,7130647130645
89,1330891330888
123,321123321123
164,835164835165
164,835164835165
137,973137973138
89,1330891330888
42,7350427350426
8,54700854700852
-10,989010989011
-15,8730158730158
-35,4090354090353
-45,177045177045
-57,3870573870572
-72,0390720390718
-81,8070818070815
-76,9230769230767
-52,5030525030523
3,66300366300365
37,8510378510377
42,7350427350426
32,9670329670329
23,1990231990231
8,54700854700852
13,4310134310134
18,3150183150183
28,083028083028
32,9670329670329
8,54700854700852
-40,2930402930402
-76,9230769230767
-72,0390720390718
-20,7570207570207
37,8510378510377
64,7130647130645
47,6190476190475
13,4310134310134
-25,6410256410256
-52,5030525030523
-67,1550671550669
-67,1550671550669
-52,5030525030523
-30,5250305250304
-6,10500610500608
32,9670329670329
98,9010989010986
184,371184371185
242,979242979243
208,791208791209
113,553113553113
37,8510378510377
-10,989010989011
-30,5250305250304
-45,177045177045
-57,3870573870572
-57,3870573870572
-52,5030525030523
-35,4090354090353
-1,22100122100122
23,1990231990231
32,9670329670329
23,1990231990231
8,54700854700852
-6,10500610500608
-10,989010989011
-15,8730158730158
-25,6410256410256
-35,4090354090353
-45,177045177045
-57,3870573870572
-72,0390720390718
-57,3870573870572
-25,6410256410256
13,4310134310134
47,6190476190475
64,7130647130645
47,6190476190475
23,1990231990231
3,66300366300365
-6,10500610500608
-10,989010989011
-10,989010989011
-6,10500610500608
-1,22100122100122
-10,989010989011
-25,6410256410256
-35,4090354090353
-45,177045177045
-40,2930402930402
-20,7570207570207
-6,10500610500608
8,54700854700852
23,1990231990231
42,7350427350426
42,7350427350426
37,8510378510377
23,1990231990231
13,4310134310134
18,3150183150183
18,3150183150183
28,083028083028
32,9670329670329
32,9670329670329
23,1990231990231
13,4310134310134
8,54700854700852
3,66300366300365
-10,989010989011
-10,989010989011
-15,8730158730158
-15,8730158730158
-10,989010989011
-1,22100122100122
8,54700854700852
13,4310134310134
8,54700854700852
18,3150183150183
18,3150183150183
18,3150183150183
18,3150183150183
18,3150183150183
8,54700854700852
-1,22100122100122
-10,989010989011
-10,989010989011
-10,989010989011
-10,989010989011
-20,7570207570207
-30,5250305250304
-30,5250305250304
-20,7570207570207
-10,989010989011
-10,989010989011
3,66300366300365
23,1990231990231
47,6190476190475
64,7130647130645
69,5970695970694
69,5970695970694
69,5970695970694
59,8290598290596
59,8290598290596
64,7130647130645
64,7130647130645
28,083028083028
-10,989010989011
-57,3870573870572
-72,0390720390718
-72,0390720390718
-62,2710622710621
-52,5030525030523
-35,4090354090353
-35,4090354090353
-40,2930402930402
-30,5250305250304
-15,8730158730158
-10,989010989011
-15,8730158730158
-35,4090354090353
-45,177045177045
-45,177045177045
-40,2930402930402
-25,6410256410256
-6,10500610500608
32,9670329670329
118,437118437118
208,791208791209
233,211233211233
174,603174603175
113,553113553113
98,9010989010986
108,669108669108
98,9010989010986
64,7130647130645
18,3150183150183
-35,4090354090353
-91,5750915750913
-120,87912087912
-106,227106227106
-81,8070818070815
-57,3870573870572
-45,177045177045
-57,3870573870572
-72,0390720390718
-76,9230769230767
-67,1550671550669
-52,5030525030523
-45,177045177045
-30,5250305250304
-30,5250305250304
-20,7570207570207
-10,989010989011
3,66300366300365
23,1990231990231
64,7130647130645
108,669108669108
133,089133089133
133,089133089133
108,669108669108
98,9010989010986
84,249084249084
47,6190476190475
3,66300366300365
-25,6410256410256
-45,177045177045
-52,5030525030523
-52,5030525030523
-52,5030525030523
-52,5030525030523
-35,4090354090353
-25,6410256410256
-15,8730158730158
3,66300366300365
47,6190476190475
84,249084249084
84,249084249084
59,8290598290596
47,6190476190475
42,7350427350426
23,1990231990231
-6,10500610500608
-20,7570207570207
-30,5250305250304
-30,5250305250304
-30,5250305250304
-30,5250305250304
-30,5250305250304
-30,5250305250304
-35,4090354090353
-52,5030525030523
-52,5030525030523
-40,2930402930402
-15,8730158730158
8,54700854700852
23,1990231990231
23,1990231990231
23,1990231990231
18,3150183150183
3,66300366300365
-10,989010989011
-10,989010989011
-6,10500610500608
-10,989010989011
-10,989010989011
-10,989010989011
-6,10500610500608
-1,22100122100122
-1,22100122100122
3,66300366300365
13,4310134310134
37,8510378510377
74,4810744810742
89,1330891330888
89,1330891330888
64,7130647130645
28,083028083028
13,4310134310134
-1,22100122100122
-6,10500610500608
-10,989010989011
-6,10500610500608
8,54700854700852
13,4310134310134
8,54700854700852
3,66300366300365
-1,22100122100122
-6,10500610500608
-10,989010989011
-10,989010989011
-10,989010989011
-15,8730158730158
-15,8730158730158
-1,22100122100122
8,54700854700852
13,4310134310134
3,66300366300365
-1,22100122100122
-10,989010989011
-10,989010989011
-10,989010989011
-6,10500610500608
3,66300366300365
3,66300366300365
-1,22100122100122
-6,10500610500608
3,66300366300365
8,54700854700852
13,4310134310134
18,3150183150183
32,9670329670329
42,7350427350426
47,6190476190475
42,7350427350426
32,9670329670329
23,1990231990231
3,66300366300365
-10,989010989011
-20,7570207570207
-45,177045177045
-86,6910866910864
-120,87912087912
-106,227106227106
-72,0390720390718
-30,5250305250304
-15,8730158730158
-10,989010989011
3,66300366300365
18,3150183150183
32,9670329670329
59,8290598290596
69,5970695970694
69,5970695970694
69,5970695970694
79,3650793650791
79,3650793650791
64,7130647130645
47,6190476190475
37,8510378510377
18,3150183150183
-10,989010989011
-35,4090354090353
-40,2930402930402
-30,5250305250304
-20,7570207570207
-15,8730158730158
-10,989010989011
-10,989010989011
3,66300366300365
8,54700854700852
3,66300366300365
3,66300366300365
-1,22100122100122
-6,10500610500608
-1,22100122100122
-1,22100122100122
3,66300366300365
18,3150183150183
32,9670329670329
64,7130647130645
89,1330891330888
98,9010989010986
64,7130647130645
3,66300366300365
-76,9230769230767
-115,995115995116
-115,995115995116
-91,5750915750913
-67,1550671550669
-52,5030525030523
-52,5030525030523
-62,2710622710621
-57,3870573870572
-40,2930402930402
8,54700854700852
103,785103785103
203,907203907204
269,84126984127
284,493284493284
218,559218559219
103,785103785103
8,54700854700852
-45,177045177045
-62,2710622710621
-52,5030525030523
-20,7570207570207
23,1990231990231
37,8510378510377
18,3150183150183
-15,8730158730158
-40,2930402930402
-52,5030525030523
-52,5030525030523
-30,5250305250304
-10,989010989011
-1,22100122100122
-1,22100122100122
-10,989010989011
-15,8730158730158
-25,6410256410256
-30,5250305250304
-35,4090354090353
-35,4090354090353
-30,5250305250304
-25,6410256410256
-15,8730158730158
-10,989010989011
-10,989010989011
-10,989010989011
-1,22100122100122
3,66300366300365
3,66300366300365
-1,22100122100122
-1,22100122100122
-1,22100122100122
3,66300366300365
3,66300366300365
8,54700854700852
3,66300366300365
3,66300366300365
8,54700854700852
3,66300366300365
8,54700854700852
8,54700854700852
8,54700854700852
8,54700854700852
8,54700854700852
8,54700854700852
-6,10500610500608
-6,10500610500608
-1,22100122100122
8,54700854700852
13,4310134310134
8,54700854700852
-6,10500610500608
-15,8730158730158
-20,7570207570207
-20,7570207570207
-10,989010989011
8,54700854700852
37,8510378510377
59,8290598290596
47,6190476190475
28,083028083028
8,54700854700852
3,66300366300365
-1,22100122100122
13,4310134310134
32,9670329670329
32,9670329670329
-1,22100122100122
-20,7570207570207
-15,8730158730158
-6,10500610500608
8,54700854700852
23,1990231990231
23,1990231990231
8,54700854700852
-1,22100122100122
-10,989010989011
-25,6410256410256
-40,2930402930402
-35,4090354090353
-10,989010989011
28,083028083028
47,6190476190475
42,7350427350426
32,9670329670329
28,083028083028
23,1990231990231
18,3150183150183
13,4310134310134
8,54700854700852
8,54700854700852
8,54700854700852
3,66300366300365
-6,10500610500608
-10,989010989011
-15,8730158730158
-15,8730158730158
-10,989010989011
-10,989010989011
3,66300366300365
18,3150183150183
23,1990231990231
28,083028083028
23,1990231990231
23,1990231990231
18,3150183150183
23,1990231990231
28,083028083028
23,1990231990231
13,4310134310134
-6,10500610500608
-15,8730158730158
-20,7570207570207
-20,7570207570207
-20,7570207570207
-20,7570207570207
-10,989010989011
-1,22100122100122
13,4310134310134
23,1990231990231
23,1990231990231
32,9670329670329
37,8510378510377
32,9670329670329
32,9670329670329
47,6190476190475
47,6190476190475
32,9670329670329
13,4310134310134
-10,989010989011
-57,3870573870572
-91,5750915750913
-86,6910866910864
-52,5030525030523
-1,22100122100122
47,6190476190475
69,5970695970694
42,7350427350426
8,54700854700852
-6,10500610500608
-10,989010989011
-10,989010989011
13,4310134310134
42,7350427350426
59,8290598290596
42,7350427350426
18,3150183150183
3,66300366300365
-15,8730158730158
-40,2930402930402
-45,177045177045
-40,2930402930402
-20,7570207570207
-10,989010989011
-20,7570207570207
-15,8730158730158
-1,22100122100122
28,083028083028
98,9010989010986
137,973137973138
98,9010989010986
28,083028083028
-20,7570207570207
-40,2930402930402
-45,177045177045
-30,5250305250304
-10,989010989011
23,1990231990231
23,1990231990231
18,3150183150183
-10,989010989011
-25,6410256410256
-30,5250305250304
-20,7570207570207
-15,8730158730158
-10,989010989011
-6,10500610500608
3,66300366300365
3,66300366300365
3,66300366300365
-6,10500610500608
-10,989010989011
-10,989010989011
-10,989010989011
-10,989010989011
-6,10500610500608
-6,10500610500608
-6,10500610500608
-6,10500610500608
-6,10500610500608
-6,10500610500608
-1,22100122100122
-1,22100122100122
3,66300366300365
13,4310134310134
23,1990231990231
23,1990231990231
23,1990231990231
18,3150183150183
8,54700854700852
8,54700854700852
13,4310134310134
18,3150183150183
23,1990231990231
23,1990231990231
18,3150183150183
8,54700854700852
3,66300366300365
-1,22100122100122
-1,22100122100122
3,66300366300365
13,4310134310134
28,083028083028
28,083028083028
23,1990231990231
13,4310134310134
8,54700854700852
8,54700854700852
3,66300366300365
-1,22100122100122
-6,10500610500608
-10,989010989011
-20,7570207570207
-35,4090354090353
-35,4090354090353
-25,6410256410256
-15,8730158730158
-6,10500610500608
8,54700854700852
23,1990231990231
28,083028083028
28,083028083028
28,083028083028
23,1990231990231
18,3150183150183
8,54700854700852
3,66300366300365
-1,22100122100122
-6,10500610500608
-10,989010989011
-15,8730158730158
-15,8730158730158
-20,7570207570207
-10,989010989011
3,66300366300365
8,54700854700852
28,083028083028
59,8290598290596
69,5970695970694
64,7130647130645
47,6190476190475
13,4310134310134
-10,989010989011
-45,177045177045
-57,3870573870572
-76,9230769230767
-91,5750915750913
-91,5750915750913
-76,9230769230767
-30,5250305250304
37,8510378510377
89,1330891330888
108,669108669108
89,1330891330888
64,7130647130645
54,9450549450548
59,8290598290596
64,7130647130645
79,3650793650791
98,9010989010986
89,1330891330888
64,7130647130645
28,083028083028
3,66300366300365
-10,989010989011
-10,989010989011
-6,10500610500608
-10,989010989011
-10,989010989011
-10,989010989011
-1,22100122100122
3,66300366300365
3,66300366300365
-6,10500610500608
-15,8730158730158
-20,7570207570207
-25,6410256410256
-20,7570207570207
-15,8730158730158
-20,7570207570207
-20,7570207570207
-15,8730158730158
-15,8730158730158
-10,989010989011
-15,8730158730158
-10,989010989011
-10,989010989011
-6,10500610500608
-6,10500610500608
-10,989010989011
-10,989010989011
-10,989010989011
-10,989010989011
-10,989010989011
-10,989010989011
-10,989010989011
-10,989010989011
-10,989010989011
-10,989010989011
-6,10500610500608
-1,22100122100122
18,3150183150183
28,083028083028
37,8510378510377
28,083028083028
23,1990231990231
18,3150183150183
8,54700854700852
-1,22100122100122
-25,6410256410256
-35,4090354090353
-35,4090354090353
-35,4090354090353
-20,7570207570207
-10,989010989011
-6,10500610500608
3,66300366300365
18,3150183150183
28,083028083028
54,9450549450548
79,3650793650791
113,553113553113
133,089133089133
142,857142857143
128,205128205129
89,1330891330888
47,6190476190475
23,1990231990231
-10,989010989011
-35,4090354090353
-52,5030525030523
-76,9230769230767
-91,5750915750913
-101,343101343101
-115,995115995116
-130,647130647131
-120,87912087912
-91,5750915750913
-52,5030525030523
-10,989010989011
32,9670329670329
103,785103785103
184,371184371185
233,211233211233
199,023199023199
137,973137973138
89,1330891330888
47,6190476190475
3,66300366300365
-40,2930402930402
-91,5750915750913
-125,763125763126
-140,415140415141
-140,415140415141
-125,763125763126
-101,343101343101
-76,9230769230767
-67,1550671550669
-52,5030525030523
-25,6410256410256
-1,22100122100122
37,8510378510377
103,785103785103
179,48717948718
208,791208791209
189,255189255189
128,205128205129
64,7130647130645
23,1990231990231
-1,22100122100122
-10,989010989011
-25,6410256410256
-40,2930402930402
-52,5030525030523
-52,5030525030523
-45,177045177045
-35,4090354090353
-35,4090354090353
-40,2930402930402
-30,5250305250304
-10,989010989011
8,54700854700852
23,1990231990231
37,8510378510377
59,8290598290596
84,249084249084
123,321123321123
128,205128205129
89,1330891330888
18,3150183150183
-45,177045177045
-76,9230769230767
-86,6910866910864
-76,9230769230767
-67,1550671550669
-52,5030525030523
-30,5250305250304
-30,5250305250304
-35,4090354090353
-40,2930402930402
-35,4090354090353
-25,6410256410256
-20,7570207570207
-10,989010989011
-6,10500610500608
3,66300366300365
8,54700854700852
3,66300366300365
-10,989010989011
-1,22100122100122
28,083028083028
69,5970695970694
94,0170940170937
98,9010989010986
69,5970695970694
37,8510378510377
23,1990231990231
28,083028083028
37,8510378510377
42,7350427350426
59,8290598290596
79,3650793650791
84,249084249084
74,4810744810742
47,6190476190475
28,083028083028
3,66300366300365
-10,989010989011
-30,5250305250304
-52,5030525030523
-62,2710622710621
-62,2710622710621
-57,3870573870572
-40,2930402930402
-30,5250305250304
-40,2930402930402
-52,5030525030523
-52,5030525030523
-52,5030525030523
-57,3870573870572
-57,3870573870572
-62,2710622710621
-67,1550671550669
-86,6910866910864
-91,5750915750913
-67,1550671550669
-25,6410256410256
32,9670329670329
89,1330891330888
98,9010989010986
84,249084249084
69,5970695970694
79,3650793650791
113,553113553113
169,71916971917
189,255189255189
137,973137973138
69,5970695970694
23,1990231990231
-1,22100122100122
-10,989010989011
-10,989010989011
-10,989010989011
-10,989010989011
-6,10500610500608
18,3150183150183
47,6190476190475
69,5970695970694
54,9450549450548
18,3150183150183
-10,989010989011
-30,5250305250304
-35,4090354090353
-40,2930402930402
-40,2930402930402
-52,5030525030523
-72,0390720390718
-86,6910866910864
-81,8070818070815
-72,0390720390718
-52,5030525030523
-30,5250305250304
-20,7570207570207
-10,989010989011
-6,10500610500608
8,54700854700852
18,3150183150183
23,1990231990231
32,9670329670329
47,6190476190475
47,6190476190475
42,7350427350426
32,9670329670329
18,3150183150183
3,66300366300365
-6,10500610500608
-20,7570207570207
-25,6410256410256
-35,4090354090353
-52,5030525030523
-62,2710622710621
-52,5030525030523
-25,6410256410256
-10,989010989011
-10,989010989011
3,66300366300365
23,1990231990231
37,8510378510377
42,7350427350426
47,6190476190475
37,8510378510377
32,9670329670329
42,7350427350426
64,7130647130645
74,4810744810742
84,249084249084
74,4810744810742
59,8290598290596
42,7350427350426
28,083028083028
18,3150183150183
3,66300366300365
-30,5250305250304
-67,1550671550669
-91,5750915750913
-86,6910866910864
-72,0390720390718
-57,3870573870572
-40,2930402930402
-20,7570207570207
-6,10500610500608
8,54700854700852
18,3150183150183
23,1990231990231
28,083028083028
23,1990231990231
23,1990231990231
13,4310134310134
8,54700854700852
8,54700854700852
13,4310134310134
8,54700854700852
-1,22100122100122
-10,989010989011
-6,10500610500608
-6,10500610500608
3,66300366300365
8,54700854700852
18,3150183150183
23,1990231990231
28,083028083028
23,1990231990231
28,083028083028
37,8510378510377
59,8290598290596
89,1330891330888
108,669108669108
94,0170940170937
59,8290598290596
23,1990231990231
-6,10500610500608
-30,5250305250304
-45,177045177045
-40,2930402930402
-35,4090354090353
-35,4090354090353
-35,4090354090353
-30,5250305250304
-20,7570207570207
-6,10500610500608
8,54700854700852
23,1990231990231
37,8510378510377
54,9450549450548
74,4810744810742
84,249084249084
79,3650793650791
59,8290598290596
18,3150183150183
-15,8730158730158
-40,2930402930402
-52,5030525030523
-62,2710622710621
-72,0390720390718
-67,1550671550669
-52,5030525030523
-35,4090354090353
-25,6410256410256
-15,8730158730158
-15,8730158730158
-20,7570207570207
-10,989010989011
-10,989010989011
-30,5250305250304
-40,2930402930402
-45,177045177045
-45,177045177045
-35,4090354090353
-20,7570207570207
-10,989010989011
-1,22100122100122
13,4310134310134
23,1990231990231
28,083028083028
47,6190476190475
94,0170940170937
155,067155067155
159,95115995116
103,785103785103
32,9670329670329
-10,989010989011
-40,2930402930402
-40,2930402930402
-10,989010989011
8,54700854700852
32,9670329670329
47,6190476190475
64,7130647130645
47,6190476190475
42,7350427350426
84,249084249084
128,205128205129
137,973137973138
79,3650793650791
-15,8730158730158
-91,5750915750913
-125,763125763126
-125,763125763126
-106,227106227106
-86,6910866910864
-62,2710622710621
-45,177045177045
-30,5250305250304
-20,7570207570207
-10,989010989011
-10,989010989011
-6,10500610500608
-1,22100122100122
3,66300366300365
8,54700854700852
3,66300366300365
3,66300366300365
-1,22100122100122
3,66300366300365
3,66300366300365
13,4310134310134
18,3150183150183
23,1990231990231
23,1990231990231
23,1990231990231
23,1990231990231
13,4310134310134
8,54700854700852
-1,22100122100122
-25,6410256410256
-52,5030525030523
-62,2710622710621
-57,3870573870572
-45,177045177045
-30,5250305250304
-30,5250305250304
-30,5250305250304
-20,7570207570207
3,66300366300365
28,083028083028
59,8290598290596
89,1330891330888
128,205128205129
169,71916971917
199,023199023199
189,255189255189
123,321123321123
64,7130647130645
23,1990231990231
-6,10500610500608
-25,6410256410256
-35,4090354090353
-35,4090354090353
-45,177045177045
-45,177045177045
-40,2930402930402
-35,4090354090353
-30,5250305250304
-30,5250305250304
-25,6410256410256
-20,7570207570207
-15,8730158730158
-10,989010989011
-6,10500610500608
3,66300366300365
8,54700854700852
3,66300366300365
-1,22100122100122
-10,989010989011
-20,7570207570207
-15,8730158730158
-10,989010989011
8,54700854700852
28,083028083028
47,6190476190475
47,6190476190475
42,7350427350426
32,9670329670329
23,1990231990231
8,54700854700852
3,66300366300365
-1,22100122100122
-20,7570207570207
-52,5030525030523
-76,9230769230767
-76,9230769230767
-62,2710622710621
-45,177045177045
-25,6410256410256
-6,10500610500608
8,54700854700852
18,3150183150183
23,1990231990231
32,9670329670329
37,8510378510377
42,7350427350426
47,6190476190475
47,6190476190475
42,7350427350426
37,8510378510377
28,083028083028
23,1990231990231
8,54700854700852
-6,10500610500608
-10,989010989011
-20,7570207570207
-30,5250305250304
-35,4090354090353
-52,5030525030523
-52,5030525030523
-40,2930402930402
-30,5250305250304
-20,7570207570207
-1,22100122100122
8,54700854700852
23,1990231990231
28,083028083028
54,9450549450548
84,249084249084
108,669108669108
103,785103785103
74,4810744810742
47,6190476190475
32,9670329670329
28,083028083028
23,1990231990231
3,66300366300365
-1,22100122100122
3,66300366300365
8,54700854700852
3,66300366300365
-10,989010989011
-25,6410256410256
-40,2930402930402
-35,4090354090353
-30,5250305250304
-20,7570207570207
-10,989010989011
18,3150183150183
37,8510378510377
54,9450549450548
54,9450549450548
47,6190476190475
8,54700854700852
-40,2930402930402
-62,2710622710621
-81,8070818070815
-106,227106227106
-115,995115995116
-115,995115995116
-130,647130647131
-130,647130647131
-86,6910866910864
-20,7570207570207
32,9670329670329
69,5970695970694
89,1330891330888
128,205128205129
147,741147741148
184,371184371185
238,095238095238
260,07326007326
203,907203907204
128,205128205129
84,249084249084
42,7350427350426
3,66300366300365
-15,8730158730158
-30,5250305250304
-45,177045177045
-45,177045177045
-45,177045177045
-45,177045177045
-40,2930402930402
-25,6410256410256
-10,989010989011
-6,10500610500608
-10,989010989011
-10,989010989011
-15,8730158730158
-30,5250305250304
-40,2930402930402
-52,5030525030523
-52,5030525030523
-52,5030525030523
-62,2710622710621
-72,0390720390718
-81,8070818070815
-86,6910866910864
-81,8070818070815
-67,1550671550669
-52,5030525030523
-35,4090354090353
-30,5250305250304
-20,7570207570207
-20,7570207570207
-15,8730158730158
-10,989010989011
-1,22100122100122
3,66300366300365
8,54700854700852
32,9670329670329
69,5970695970694
113,553113553113
147,741147741148
137,973137973138
113,553113553113
98,9010989010986
79,3650793650791
59,8290598290596
32,9670329670329
13,4310134310134
3,66300366300365
-10,989010989011
-10,989010989011
-25,6410256410256
-52,5030525030523
-76,9230769230767
-91,5750915750913
-76,9230769230767
-52,5030525030523
-30,5250305250304
-10,989010989011
-1,22100122100122
8,54700854700852
23,1990231990231
28,083028083028
28,083028083028
23,1990231990231
23,1990231990231
13,4310134310134
3,66300366300365
-1,22100122100122
8,54700854700852
18,3150183150183
23,1990231990231
23,1990231990231
23,1990231990231
18,3150183150183
23,1990231990231
13,4310134310134
-1,22100122100122
-10,989010989011
-10,989010989011
-10,989010989011
-6,10500610500608
-1,22100122100122
8,54700854700852
13,4310134310134
18,3150183150183
23,1990231990231
23,1990231990231
28,083028083028
47,6190476190475
79,3650793650791
103,785103785103
103,785103785103
74,4810744810742
42,7350427350426
18,3150183150183
3,66300366300365
-10,989010989011
-15,8730158730158
-30,5250305250304
-30,5250305250304
-40,2930402930402
-45,177045177045
-52,5030525030523
-52,5030525030523
-35,4090354090353
-30,5250305250304
-20,7570207570207
-15,8730158730158
-10,989010989011
-10,989010989011
3,66300366300365
18,3150183150183
23,1990231990231
23,1990231990231
13,4310134310134
8,54700854700852
8,54700854700852
-1,22100122100122
-10,989010989011
-10,989010989011
8,54700854700852
28,083028083028
32,9670329670329
28,083028083028
8,54700854700852
-1,22100122100122
-10,989010989011
-10,989010989011
-6,10500610500608
13,4310134310134
23,1990231990231
28,083028083028
47,6190476190475
64,7130647130645
64,7130647130645
64,7130647130645
42,7350427350426
18,3150183150183
8,54700854700852
8,54700854700852
8,54700854700852
8,54700854700852
8,54700854700852
13,4310134310134
-1,22100122100122
-20,7570207570207
-30,5250305250304
-40,2930402930402
-45,177045177045
-45,177045177045
-30,5250305250304
-20,7570207570207
-30,5250305250304
-45,177045177045
-45,177045177045
-30,5250305250304
-6,10500610500608
28,083028083028
42,7350427350426
28,083028083028
-10,989010989011
-62,2710622710621
-76,9230769230767
-72,0390720390718
-62,2710622710621
-45,177045177045
-35,4090354090353
-25,6410256410256
-10,989010989011
3,66300366300365
23,1990231990231
47,6190476190475
69,5970695970694
103,785103785103
137,973137973138
164,835164835165
169,71916971917
142,857142857143
98,9010989010986
84,249084249084
69,5970695970694
37,8510378510377
3,66300366300365
-20,7570207570207
-45,177045177045
-72,0390720390718
-86,6910866910864
-86,6910866910864
-72,0390720390718
-52,5030525030523
-40,2930402930402
-30,5250305250304
-15,8730158730158
-10,989010989011
-1,22100122100122
3,66300366300365
3,66300366300365
3,66300366300365
-1,22100122100122
-15,8730158730158
-25,6410256410256
-30,5250305250304
-30,5250305250304
-25,6410256410256
-20,7570207570207
-20,7570207570207
-10,989010989011
-6,10500610500608
8,54700854700852
8,54700854700852
-1,22100122100122
8,54700854700852
47,6190476190475
103,785103785103
118,437118437118
74,4810744810742
23,1990231990231
8,54700854700852
18,3150183150183
37,8510378510377
47,6190476190475
59,8290598290596
69,5970695970694
103,785103785103
108,669108669108
84,249084249084
23,1990231990231
-35,4090354090353
-72,0390720390718
-76,9230769230767
-67,1550671550669
-57,3870573870572
-67,1550671550669
-81,8070818070815
-86,6910866910864
-76,9230769230767
-52,5030525030523
-35,4090354090353
-20,7570207570207
-10,989010989011
-6,10500610500608
3,66300366300365
8,54700854700852
13,4310134310134
18,3150183150183
13,4310134310134
13,4310134310134
13,4310134310134
13,4310134310134
18,3150183150183
23,1990231990231
28,083028083028
28,083028083028
32,9670329670329
37,8510378510377
32,9670329670329
23,1990231990231
18,3150183150183
13,4310134310134
8,54700854700852
3,66300366300365
-10,989010989011
-15,8730158730158
-15,8730158730158
-10,989010989011
-6,10500610500608
-6,10500610500608
-10,989010989011
-20,7570207570207
-20,7570207570207
-10,989010989011
-6,10500610500608
3,66300366300365
8,54700854700852
18,3150183150183
42,7350427350426
79,3650793650791
98,9010989010986
103,785103785103
89,1330891330888
47,6190476190475
3,66300366300365
-10,989010989011
3,66300366300365
13,4310134310134
-6,10500610500608
-25,6410256410256
-40,2930402930402
-57,3870573870572
-57,3870573870572
-45,177045177045
-25,6410256410256
-10,989010989011
8,54700854700852
59,8290598290596
103,785103785103
103,785103785103
79,3650793650791
37,8510378510377
-10,989010989011
-52,5030525030523
-76,9230769230767
-81,8070818070815
-67,1550671550669
-52,5030525030523
-35,4090354090353
-25,6410256410256
-10,989010989011
-10,989010989011
-6,10500610500608
-1,22100122100122
3,66300366300365
8,54700854700852
8,54700854700852
8,54700854700852
8,54700854700852
13,4310134310134
18,3150183150183
23,1990231990231
28,083028083028
23,1990231990231
-1,22100122100122
-15,8730158730158
-20,7570207570207
-20,7570207570207
-15,8730158730158
-20,7570207570207
-25,6410256410256
-15,8730158730158
-10,989010989011
-10,989010989011
3,66300366300365
28,083028083028
69,5970695970694
108,669108669108
123,321123321123
89,1330891330888
47,6190476190475
42,7350427350426
59,8290598290596
69,5970695970694
69,5970695970694
47,6190476190475
18,3150183150183
-1,22100122100122
-10,989010989011
-20,7570207570207
-30,5250305250304
-30,5250305250304
-30,5250305250304
-25,6410256410256
-20,7570207570207
-20,7570207570207
-30,5250305250304
-30,5250305250304
-15,8730158730158
-1,22100122100122
-1,22100122100122
3,66300366300365
-1,22100122100122
-6,10500610500608
-6,10500610500608
-10,989010989011
-20,7570207570207
-35,4090354090353
-35,4090354090353
-6,10500610500608
64,7130647130645
103,785103785103
59,8290598290596
8,54700854700852
-10,989010989011
-1,22100122100122
8,54700854700852
13,4310134310134
18,3150183150183
13,4310134310134
8,54700854700852
8,54700854700852
3,66300366300365
-10,989010989011
-20,7570207570207
-30,5250305250304
-52,5030525030523
-62,2710622710621
-67,1550671550669
-52,5030525030523
-30,5250305250304
-20,7570207570207
-10,989010989011
8,54700854700852
23,1990231990231
28,083028083028
28,083028083028
28,083028083028
32,9670329670329
37,8510378510377
47,6190476190475
74,4810744810742
84,249084249084
69,5970695970694
42,7350427350426
23,1990231990231
18,3150183150183
8,54700854700852
-6,10500610500608
-10,989010989011
-20,7570207570207
-20,7570207570207
-20,7570207570207
-10,989010989011
-6,10500610500608
3,66300366300365
3,66300366300365
3,66300366300365
-10,989010989011
-20,7570207570207
-20,7570207570207
-10,989010989011
3,66300366300365
23,1990231990231
32,9670329670329
18,3150183150183
-10,989010989011
-30,5250305250304
-35,4090354090353
-20,7570207570207
-10,989010989011
8,54700854700852
37,8510378510377
64,7130647130645
69,5970695970694
64,7130647130645
59,8290598290596
42,7350427350426
47,6190476190475
79,3650793650791
103,785103785103
84,249084249084
47,6190476190475
8,54700854700852
-15,8730158730158
-30,5250305250304
-30,5250305250304
-35,4090354090353
-52,5030525030523
-62,2710622710621
-52,5030525030523
-35,4090354090353
-25,6410256410256
-10,989010989011
3,66300366300365
-1,22100122100122
-1,22100122100122
-1,22100122100122
-6,10500610500608
-10,989010989011
-6,10500610500608
-1,22100122100122
-6,10500610500608
-25,6410256410256
-52,5030525030523
-62,2710622710621
-57,3870573870572
-30,5250305250304
-1,22100122100122
23,1990231990231
28,083028083028
23,1990231990231
18,3150183150183
18,3150183150183
23,1990231990231
28,083028083028
13,4310134310134
-1,22100122100122
-6,10500610500608
3,66300366300365
13,4310134310134
23,1990231990231
32,9670329670329
32,9670329670329
18,3150183150183
8,54700854700852
-1,22100122100122
-6,10500610500608
-6,10500610500608
-6,10500610500608
-10,989010989011
-15,8730158730158
-15,8730158730158
-15,8730158730158
-30,5250305250304
-40,2930402930402
-40,2930402930402
-35,4090354090353
-20,7570207570207
-6,10500610500608
8,54700854700852
18,3150183150183
28,083028083028
37,8510378510377
47,6190476190475
64,7130647130645
84,249084249084
103,785103785103
113,553113553113
94,0170940170937
54,9450549450548
23,1990231990231
3,66300366300365
-6,10500610500608
-6,10500610500608
-1,22100122100122
23,1990231990231
37,8510378510377
42,7350427350426
37,8510378510377
